typ,cls,cmd,label
128,3,4,[0, 22, 2],fire
128,6,0,[191, 0, 12, 151, 202, 214, 125, 248, 0, 255, 31, 9, 8, 77, 121, 32, 77, 121, 111, 0, 0, 2, 1, 6, 17, 6, 66, 72, 18, 74, 127, 44, 72, 71, 185, 222, 4, 169, 1, 0, 6, 213],fire
128,4,5,[0, 35, 0, 2, 6, 1, 1, 2, 2, 177, 10],fire
128,4,5,[0, 28, 0, 1, 20, 215, 218, 136, 30, 203, 232, 70, 35, 145, 1, 205, 247, 90, 2, 249, 254, 7, 0, 220, 255],fire
128,4,5,[0, 28, 0, 1, 20, 253, 218, 150, 30, 221, 232, 110, 35, 172, 1, 183, 248, 29, 2, 54, 0, 65, 0, 173, 255],fire
128,4,5,[0, 28, 0, 1, 20, 49, 219, 173, 30, 223, 232, 146, 35, 208, 1, 178, 248, 224, 1, 181, 255, 129, 0, 242, 255],fire
128,4,5,[0, 28, 0, 1, 20, 82, 219, 185, 30, 200, 232, 154, 35, 145, 1, 207, 248, 175, 1, 126, 255, 157, 0, 252, 255],fire
128,4,5,[0, 28, 0, 1, 20, 134, 219, 210, 30, 158, 232, 158, 35, 151, 1, 217, 248, 165, 1, 218, 254, 203, 0, 239, 255],fire
128,4,5,[0, 28, 0, 1, 20, 195, 219, 243, 30, 105, 232, 157, 35, 158, 1, 209, 248, 126, 1, 141, 254, 221, 0, 239, 255],fire
128,4,5,[0, 28, 0, 1, 20, 14, 220, 28, 31, 37, 232, 152, 35, 97, 1, 206, 248, 97, 1, 18, 254, 0, 1, 200, 255],fire
128,4,5,[0, 28, 0, 1, 20, 105, 220, 71, 31, 209, 231, 149, 35, 215, 0, 174, 248, 80, 1, 187, 253, 60, 1, 108, 255],fire
128,4,5,[0, 28, 0, 1, 20, 202, 220, 107, 31, 130, 231, 160, 35, 192, 0, 75, 248, 111, 1, 213, 253, 112, 1, 23, 255],fire
128,4,5,[0, 28, 0, 1, 20, 48, 221, 141, 31, 41, 231, 169, 35, 149, 0, 253, 247, 101, 1, 177, 253, 148, 1, 16, 255],fire
128,4,5,[0, 28, 0, 1, 20, 151, 221, 169, 31, 165, 230, 151, 35, 54, 0, 74, 246, 120, 1, 14, 253, 205, 1, 153, 255],fire
128,4,5,[0, 28, 0, 1, 20, 194, 221, 137, 31, 31, 230, 124, 35, 182, 255, 50, 247, 143, 1, 31, 254, 236, 1, 210, 0],fire
128,4,5,[0, 28, 0, 1, 20, 221, 221, 85, 31, 179, 229, 117, 35, 91, 255, 65, 248, 54, 1, 16, 255, 234, 1, 150, 0],fire
128,4,5,[0, 28, 0, 1, 20, 39, 222, 109, 31, 43, 229, 65, 35, 235, 255, 131, 248, 206, 0, 15, 253, 92, 1, 128, 0],fire
128,4,5,[0, 28, 0, 1, 20, 135, 222, 158, 31, 165, 228, 9, 35, 122, 0, 120, 247, 10, 1, 102, 252, 52, 1, 77, 0],fire
128,4,5,[0, 28, 0, 1, 20, 225, 222, 203, 31, 53, 228, 222, 34, 38, 1, 230, 247, 210, 0, 232, 252, 42, 1, 107, 0],fire
128,4,5,[0, 28, 0, 1, 20, 65, 223, 245, 31, 201, 227, 187, 34, 100, 1, 200, 248, 115, 0, 16, 253, 83, 1, 103, 0],fire
128,4,5,[0, 28, 0, 1, 20, 172, 223, 46, 32, 78, 227, 134, 34, 94, 1, 113, 248, 162, 0, 67, 252, 52, 1, 128, 0],fire
128,4,5,[0, 28, 0, 1, 20, 24, 224, 121, 32, 195, 226, 47, 34, 2, 1, 234, 247, 126, 0, 133, 251, 197, 0, 165, 0],fire
128,4,5,[0, 28, 0, 1, 20, 108, 224, 196, 32, 79, 226, 210, 33, 220, 0, 110, 247, 124, 0, 236, 251, 45, 0, 166, 0],fire
128,4,5,[0, 28, 0, 1, 20, 167, 224, 9, 33, 246, 225, 117, 33, 208, 0, 43, 247, 77, 0, 149, 252, 186, 255, 171, 0],fire
128,4,5,[0, 28, 0, 1, 20, 195, 224, 63, 33, 188, 225, 38, 33, 155, 0, 115, 247, 47, 0, 152, 253, 98, 255, 151, 0],fire
128,4,5,[0, 28, 0, 1, 20, 208, 224, 114, 33, 145, 225, 215, 32, 153, 0, 124, 247, 48, 0, 231, 253, 34, 255, 167, 0],fire
128,4,5,[0, 28, 0, 1, 20, 217, 224, 160, 33, 93, 225, 129, 32, 119, 0, 109, 247, 250, 255, 227, 253, 34, 255, 220, 0],fire
128,4,5,[0, 28, 0, 1, 20, 208, 224, 185, 33, 40, 225, 43, 32, 20, 0, 68, 247, 8, 0, 57, 254, 52, 255, 31, 1],fire
128,4,5,[0, 28, 0, 1, 20, 171, 224, 180, 33, 253, 224, 226, 31, 193, 255, 35, 247, 26, 0, 22, 255, 71, 255, 90, 1],fire
128,4,5,[0, 28, 0, 1, 20, 127, 224, 170, 33, 210, 224, 151, 31, 128, 255, 60, 247, 174, 255, 97, 255, 62, 255, 103, 1],fire
128,4,5,[0, 28, 0, 1, 20, 91, 224, 162, 33, 165, 224, 79, 31, 149, 255, 219, 246, 154, 255, 78, 255, 98, 255, 103, 1],fire
128,4,5,[0, 28, 0, 1, 20, 54, 224, 142, 33, 126, 224, 23, 31, 165, 255, 202, 246, 198, 255, 146, 255, 151, 255, 90, 1],fire
128,4,5,[0, 28, 0, 1, 20, 235, 223, 111, 33, 107, 224, 217, 30, 75, 255, 35, 247, 241, 255, 47, 0, 9, 255, 149, 1],fire
128,4,5,[0, 28, 0, 1, 20, 140, 223, 82, 33, 94, 224, 135, 30, 32, 255, 41, 247, 43, 0, 42, 0, 128, 254, 232, 1],fire
128,4,5,[0, 28, 0, 1, 20, 49, 223, 56, 33, 80, 224, 52, 30, 137, 255, 55, 247, 68, 0, 253, 255, 128, 254, 33, 2],fire
128,4,5,[0, 28, 0, 1, 20, 225, 222, 27, 33, 65, 224, 236, 29, 125, 255, 179, 246, 118, 0, 230, 255, 206, 254, 255, 1],fire
128,4,5,[0, 28, 0, 1, 20, 119, 222, 224, 32, 61, 224, 177, 29, 245, 254, 148, 246, 179, 0, 177, 0, 217, 254, 18, 2],fire
128,4,5,[0, 28, 0, 1, 20, 251, 221, 151, 32, 72, 224, 129, 29, 158, 254, 232, 246, 150, 0, 117, 1, 196, 254, 0, 2],fire
128,4,5,[0, 28, 0, 1, 20, 129, 221, 77, 32, 85, 224, 82, 29, 193, 254, 65, 247, 92, 0, 162, 1, 194, 254, 19, 2],fire
128,4,5,[0, 28, 0, 1, 20, 37, 221, 31, 32, 71, 224, 8, 29, 218, 254, 105, 247, 42, 0, 139, 0, 209, 254, 56, 2],fire
128,4,5,[0, 28, 0, 1, 20, 228, 220, 15, 32, 33, 224, 162, 28, 33, 255, 74, 247, 19, 0, 101, 255, 201, 254, 116, 2],fire
128,4,5,[0, 28, 0, 1, 20, 174, 220, 4, 32, 217, 223, 27, 28, 150, 255, 104, 247, 245, 255, 136, 254, 231, 254, 91, 3],fire
128,4,5,[0, 28, 0, 1, 20, 142, 220, 34, 32, 107, 223, 78, 27, 191, 255, 212, 248, 98, 255, 238, 252, 105, 254, 14, 4],fire
128,4,5,[0, 28, 0, 1, 20, 109, 220, 92, 32, 239, 222, 69, 26, 214, 0, 184, 249, 7, 254, 114, 252, 133, 253, 62, 5],fire
128,4,5,[0, 28, 0, 1, 20, 255, 219, 25, 32, 185, 222, 187, 25, 105, 1, 86, 247, 142, 254, 144, 0, 81, 254, 167, 5],fire
128,4,5,[0, 28, 0, 1, 20, 252, 218, 40, 31, 255, 222, 207, 25, 96, 255, 19, 247, 185, 255, 171, 6, 134, 254, 44, 4],fire
128,4,5,[0, 28, 0, 1, 20, 5, 218, 14, 30, 41, 223, 235, 25, 78, 253, 168, 246, 71, 0, 228, 6, 113, 255, 121, 4],fire
128,4,5,[0, 28, 0, 1, 20, 41, 217, 184, 28, 190, 222, 161, 25, 27, 255, 108, 246, 43, 1, 217, 4, 57, 1, 22, 8],fire
128,4,5,[0, 28, 0, 1, 20, 56, 216, 77, 27, 55, 222, 9, 25, 64, 255, 110, 248, 176, 0, 65, 4, 198, 0, 205, 9],fire
128,4,5,[0, 28, 0, 1, 20, 99, 215, 116, 26, 246, 221, 65, 24, 131, 252, 61, 251, 65, 1, 247, 1, 111, 254, 116, 7],fire
128,4,5,[0, 28, 0, 1, 20, 173, 214, 5, 26, 242, 221, 126, 23, 11, 251, 120, 252, 172, 0, 195, 0, 242, 252, 203, 3],fire
128,4,5,[0, 28, 0, 1, 20, 108, 214, 89, 26, 16, 222, 214, 22, 32, 253, 128, 252, 153, 1, 18, 253, 216, 252, 247, 0],fire
128,4,5,[0, 28, 0, 1, 20, 147, 214, 23, 27, 52, 222, 115, 22, 168, 254, 61, 250, 211, 1, 110, 251, 231, 253, 31, 255],fire
128,4,5,[0, 28, 0, 1, 20, 213, 214, 175, 27, 100, 222, 124, 22, 34, 254, 5, 248, 220, 1, 24, 253, 81, 255, 216, 253],fire
128,4,5,[0, 28, 0, 1, 20, 251, 214, 226, 27, 162, 222, 222, 22, 177, 253, 123, 247, 227, 0, 111, 0, 41, 0, 165, 253],fire
128,4,5,[0, 28, 0, 1, 20, 3, 215, 247, 27, 218, 222, 35, 23, 7, 253, 239, 248, 159, 0, 217, 0, 205, 255, 7, 254],fire
128,4,5,[0, 28, 0, 1, 20, 30, 215, 38, 28, 205, 222, 7, 23, 191, 252, 7, 250, 149, 0, 154, 254, 208, 255, 56, 255],fire
128,4,5,[0, 28, 0, 1, 20, 102, 215, 147, 28, 130, 222, 147, 22, 52, 252, 26, 249, 1, 0, 25, 252, 199, 255, 231, 255],fire
128,4,5,[0, 28, 0, 1, 20, 190, 215, 241, 28, 44, 222, 54, 22, 186, 252, 189, 247, 78, 0, 25, 252, 145, 0, 79, 0],fire
128,4,5,[0, 28, 0, 1, 20, 231, 215, 225, 28, 5, 222, 90, 22, 220, 252, 77, 247, 227, 0, 156, 255, 155, 1, 208, 255],fire
128,4,5,[0, 28, 0, 1, 20, 246, 215, 154, 28, 235, 221, 168, 22, 144, 252, 172, 248, 144, 0, 92, 1, 227, 1, 135, 255],fire
128,4,5,[0, 28, 0, 1, 20, 29, 216, 149, 28, 209, 221, 203, 22, 88, 252, 184, 249, 38, 0, 240, 255, 39, 1, 219, 254],fire
128,4,5,[0, 28, 0, 1, 20, 94, 216, 212, 28, 200, 221, 225, 22, 181, 252, 231, 248, 169, 255, 243, 254, 123, 0, 45, 254],fire
128,4,5,[0, 28, 0, 1, 20, 134, 216, 10, 29, 229, 221, 12, 23, 114, 253, 186, 247, 0, 0, 176, 255, 16, 0, 90, 254],fire
128,4,5,[0, 28, 0, 1, 20, 139, 216, 24, 29, 15, 222, 67, 23, 25, 253, 188, 247, 74, 0, 178, 0, 240, 255, 154, 254],fire
128,4,5,[0, 28, 0, 1, 20, 140, 216, 25, 29, 31, 222, 88, 23, 238, 252, 127, 248, 20, 0, 103, 0, 246, 255, 68, 255],fire
128,4,5,[0, 28, 0, 1, 20, 163, 216, 44, 29, 1, 222, 60, 23, 179, 252, 126, 248, 239, 255, 20, 255, 50, 0, 225, 255],fire
128,4,5,[0, 28, 0, 1, 20, 177, 216, 57, 29, 223, 221, 17, 23, 146, 252, 201, 247, 70, 0, 213, 254, 26, 0, 91, 0],fire
128,4,5,[0, 28, 0, 1, 20, 182, 216, 68, 29, 197, 221, 230, 22, 199, 252, 3, 248, 226, 255, 51, 255, 216, 255, 109, 0],fire
128,4,5,[0, 28, 0, 1, 20, 170, 216, 87, 29, 188, 221, 171, 22, 26, 253, 171, 248, 198, 255, 64, 255, 52, 255, 154, 0],fire
128,4,5,[0, 28, 0, 1, 20, 162, 216, 118, 29, 188, 221, 116, 22, 88, 253, 226, 248, 75, 255, 102, 255, 252, 254, 96, 0],fire
128,4,5,[0, 28, 0, 1, 20, 155, 216, 133, 29, 197, 221, 97, 22, 65, 254, 118, 249, 231, 254, 74, 0, 70, 255, 87, 0],fire
128,4,5,[0, 28, 0, 1, 20, 98, 216, 69, 29, 12, 222, 191, 22, 38, 254, 52, 249, 34, 0, 18, 3, 209, 255, 123, 255],fire
128,4,5,[0, 28, 0, 1, 20, 50, 216, 4, 29, 62, 222, 7, 23, 66, 252, 139, 247, 227, 255, 202, 2, 234, 255, 60, 255],fire
128,4,5,[0, 28, 0, 1, 20, 51, 216, 192, 28, 12, 222, 20, 23, 114, 253, 166, 244, 136, 0, 156, 0, 103, 1, 223, 1],fire
128,4,5,[0, 28, 0, 1, 20, 2, 216, 52, 28, 170, 221, 219, 22, 195, 254, 61, 245, 2, 1, 164, 0, 120, 1, 59, 5],fire
128,4,5,[0, 28, 0, 1, 20, 105, 215, 58, 27, 119, 221, 175, 22, 65, 253, 224, 247, 203, 0, 213, 3, 128, 0, 142, 5],fire
128,4,5,[0, 28, 0, 1, 20, 229, 214, 162, 26, 91, 221, 75, 22, 16, 251, 193, 251, 149, 0, 204, 1, 7, 255, 237, 2],fire
128,4,5,[0, 28, 0, 1, 20, 184, 214, 185, 26, 107, 221, 245, 21, 94, 251, 82, 252, 20, 1, 205, 254, 90, 254, 166, 255],fire
128,4,5,[0, 28, 0, 1, 20, 222, 214, 78, 27, 161, 221, 217, 21, 110, 253, 97, 250, 26, 1, 66, 253, 122, 254, 204, 253],fire
128,4,5,[0, 28, 0, 1, 20, 57, 215, 21, 28, 231, 221, 245, 21, 34, 254, 116, 248, 91, 1, 182, 252, 29, 255, 143, 252],fire
128,4,5,[0, 28, 0, 1, 20, 152, 215, 168, 28, 41, 222, 75, 22, 14, 254, 141, 247, 133, 0, 118, 254, 245, 255, 100, 252],fire
128,4,5,[0, 28, 0, 1, 20, 202, 215, 228, 28, 115, 222, 199, 22, 124, 253, 63, 248, 77, 0, 178, 0, 79, 0, 162, 252],fire
128,4,5,[0, 28, 0, 1, 20, 249, 215, 47, 29, 168, 222, 8, 23, 44, 253, 94, 249, 99, 255, 34, 0, 176, 255, 19, 253],fire
128,4,5,[0, 28, 0, 1, 20, 57, 216, 180, 29, 201, 222, 253, 22, 74, 253, 98, 249, 92, 255, 28, 254, 243, 254, 131, 253],fire
128,4,5,[0, 28, 0, 1, 20, 140, 216, 71, 30, 216, 222, 225, 22, 159, 253, 39, 248, 66, 255, 104, 253, 42, 255, 247, 253],fire
128,4,5,[0, 28, 0, 1, 20, 204, 216, 170, 30, 244, 222, 244, 22, 152, 253, 80, 247, 155, 255, 177, 254, 174, 255, 241, 253],fire
128,4,5,[0, 28, 0, 1, 20, 235, 216, 207, 30, 27, 223, 47, 23, 164, 253, 130, 247, 177, 255, 91, 0, 27, 0, 49, 254],fire
128,4,5,[0, 28, 0, 1, 20, 2, 217, 240, 30, 56, 223, 83, 23, 107, 253, 89, 248, 251, 255, 254, 255, 246, 255, 114, 254],fire
128,4,5,[0, 35, 0, 2, 6, 3, 2, 0, 0, 0, 0],fire
128,4,5,[0, 39, 0, 1, 17, 67, 2, 71, 0, 187, 0, 70, 1, 153, 0, 70, 0, 45, 0, 215, 0, 0],fire
128,4,5,[0, 39, 0, 1, 17, 50, 2, 90, 0, 194, 0, 42, 1, 147, 0, 64, 0, 39, 0, 195, 0, 0],fire
128,4,5,[0, 39, 0, 1, 17, 42, 2, 89, 0, 199, 0, 35, 1, 148, 0, 63, 0, 38, 0, 161, 0, 0],fire
128,4,5,[0, 39, 0, 1, 17, 29, 2, 92, 0, 223, 0, 216, 0, 88, 0, 65, 0, 40, 0, 133, 0, 0],fire
128,4,5,[0, 39, 0, 1, 17, 167, 1, 88, 0, 241, 0, 1, 1, 108, 0, 63, 0, 44, 0, 149, 0, 0],fire
128,4,5,[0, 39, 0, 1, 17, 4, 1, 79, 0, 248, 0, 10, 1, 124, 0, 80, 0, 47, 0, 140, 0, 0],fire
128,4,5,[0, 39, 0, 1, 17, 251, 0, 55, 0, 236, 0, 28, 1, 142, 0, 101, 0, 51, 0, 136, 0, 0],fire
128,4,5,[0, 39, 0, 1, 17, 172, 0, 57, 0, 202, 0, 112, 1, 15, 1, 141, 0, 100, 0, 134, 0, 0],fire
128,4,5,[0, 39, 0, 1, 17, 146, 0, 58, 0, 168, 0, 24, 2, 226, 1, 167, 0, 134, 0, 113, 0, 0],fire
128,4,5,[0, 39, 0, 1, 17, 120, 0, 70, 0, 166, 0, 128, 2, 34, 2, 232, 0, 161, 0, 140, 0, 0],fire
128,4,5,[0, 39, 0, 1, 17, 110, 0, 72, 0, 161, 0, 188, 2, 147, 2, 251, 0, 193, 0, 254, 0, 0],fire
128,4,5,[0, 39, 0, 1, 17, 127, 0, 72, 0, 152, 0, 37, 3, 178, 2, 7, 1, 203, 0, 92, 1, 0],fire
128,4,5,[0, 39, 0, 1, 17, 156, 0, 72, 0, 146, 0, 33, 3, 155, 2, 249, 0, 205, 0, 179, 1, 0],fire
128,4,5,[0, 28, 0, 1, 20, 0, 216, 123, 31, 152, 224, 200, 22, 167, 254, 79, 244, 132, 1, 122, 0, 92, 1, 8, 4],fire
128,4,5,[0, 28, 0, 1, 20, 79, 215, 111, 30, 29, 224, 76, 22, 201, 254, 73, 246, 136, 0, 70, 3, 140, 0, 128, 7],fire
128,4,5,[0, 28, 0, 1, 20, 183, 214, 182, 29, 198, 223, 175, 21, 194, 252, 100, 249, 14, 1, 117, 1, 103, 255, 205, 5],fire
128,4,5,[0, 28, 0, 1, 20, 41, 214, 68, 29, 208, 223, 74, 21, 95, 251, 96, 250, 78, 1, 147, 1, 47, 254, 92, 2],fire
128,4,5,[0, 28, 0, 1, 20, 214, 213, 65, 29, 18, 224, 12, 21, 145, 252, 237, 251, 199, 0, 122, 0, 136, 253, 231, 255],fire
128,4,5,[0, 28, 0, 1, 20, 234, 213, 219, 29, 113, 224, 236, 20, 96, 254, 188, 250, 9, 1, 155, 253, 141, 253, 213, 253],fire
128,4,5,[0, 28, 0, 1, 20, 67, 214, 182, 30, 209, 224, 241, 20, 185, 254, 196, 248, 159, 0, 158, 252, 34, 254, 147, 252],fire
128,4,5,[0, 28, 0, 1, 20, 155, 214, 103, 31, 63, 225, 59, 21, 139, 254, 176, 247, 4, 0, 98, 254, 215, 254, 221, 251],fire
128,4,5,[0, 28, 0, 1, 20, 183, 214, 212, 31, 206, 225, 155, 21, 24, 254, 0, 248, 187, 255, 151, 0, 102, 254, 246, 251],fire
128,4,5,[0, 28, 0, 1, 20, 197, 214, 71, 32, 74, 226, 183, 21, 72, 254, 251, 248, 84, 255, 9, 0, 176, 253, 12, 253],fire
128,4,5,[0, 28, 0, 1, 20, 236, 214, 208, 32, 137, 226, 138, 21, 242, 253, 34, 249, 87, 255, 47, 254, 221, 253, 23, 254],fire
128,4,5,[0, 28, 0, 1, 20, 48, 215, 96, 33, 159, 226, 74, 21, 29, 254, 73, 248, 141, 255, 30, 253, 124, 254, 184, 254],fire
128,4,5,[0, 28, 0, 1, 20, 110, 215, 211, 33, 176, 226, 35, 21, 56, 254, 86, 247, 236, 255, 143, 253, 19, 255, 224, 254],fire
128,4,5,[0, 28, 0, 1, 20, 135, 215, 14, 34, 203, 226, 27, 21, 5, 254, 54, 247, 103, 0, 226, 254, 102, 255, 17, 255],fire
128,4,5,[0, 28, 0, 1, 20, 136, 215, 54, 34, 250, 226, 28, 21, 204, 253, 175, 247, 133, 0, 146, 255, 30, 255, 221, 254],fire
