typ,cls,cmd,label
128,3,4,0,22,2,fire
128,6,0,191,0,12,151,202,214,125,248,0,255,31,9,8,77,121,32,77,121,111,0,0,2,1,6,17,6,66,72,18,74,127,44,72,71,185,222,4,169,1,0,6,213,fire
128,4,5,0,35,0,2,6,1,1,2,2,177,10,fire
128,4,5,0,28,0,1,20,215,218,136,30,203,232,70,35,145,1,205,247,90,2,249,254,7,0,220,255,fire
128,4,5,0,28,0,1,20,253,218,150,30,221,232,110,35,172,1,183,248,29,2,54,0,65,0,173,255,fire
128,4,5,0,28,0,1,20,49,219,173,30,223,232,146,35,208,1,178,248,224,1,181,255,129,0,242,255,fire
128,4,5,0,28,0,1,20,82,219,185,30,200,232,154,35,145,1,207,248,175,1,126,255,157,0,252,255,fire
128,4,5,0,28,0,1,20,134,219,210,30,158,232,158,35,151,1,217,248,165,1,218,254,203,0,239,255,fire
128,4,5,0,28,0,1,20,195,219,243,30,105,232,157,35,158,1,209,248,126,1,141,254,221,0,239,255,fire
128,4,5,0,28,0,1,20,14,220,28,31,37,232,152,35,97,1,206,248,97,1,18,254,0,1,200,255,fire
128,4,5,0,28,0,1,20,105,220,71,31,209,231,149,35,215,0,174,248,80,1,187,253,60,1,108,255,fire
128,4,5,0,28,0,1,20,202,220,107,31,130,231,160,35,192,0,75,248,111,1,213,253,112,1,23,255,fire
128,4,5,0,28,0,1,20,48,221,141,31,41,231,169,35,149,0,253,247,101,1,177,253,148,1,16,255,fire
128,4,5,0,28,0,1,20,151,221,169,31,165,230,151,35,54,0,74,246,120,1,14,253,205,1,153,255,fire
128,4,5,0,28,0,1,20,194,221,137,31,31,230,124,35,182,255,50,247,143,1,31,254,236,1,210,0,fire
128,4,5,0,28,0,1,20,221,221,85,31,179,229,117,35,91,255,65,248,54,1,16,255,234,1,150,0,fire
128,4,5,0,28,0,1,20,39,222,109,31,43,229,65,35,235,255,131,248,206,0,15,253,92,1,128,0,fire
128,4,5,0,28,0,1,20,135,222,158,31,165,228,9,35,122,0,120,247,10,1,102,252,52,1,77,0,fire
128,4,5,0,28,0,1,20,225,222,203,31,53,228,222,34,38,1,230,247,210,0,232,252,42,1,107,0,fire
128,4,5,0,28,0,1,20,65,223,245,31,201,227,187,34,100,1,200,248,115,0,16,253,83,1,103,0,fire
128,4,5,0,28,0,1,20,172,223,46,32,78,227,134,34,94,1,113,248,162,0,67,252,52,1,128,0,fire
128,4,5,0,28,0,1,20,24,224,121,32,195,226,47,34,2,1,234,247,126,0,133,251,197,0,165,0,fire
128,4,5,0,28,0,1,20,108,224,196,32,79,226,210,33,220,0,110,247,124,0,236,251,45,0,166,0,fire
128,4,5,0,28,0,1,20,167,224,9,33,246,225,117,33,208,0,43,247,77,0,149,252,186,255,171,0,fire
128,4,5,0,28,0,1,20,195,224,63,33,188,225,38,33,155,0,115,247,47,0,152,253,98,255,151,0,fire
128,4,5,0,28,0,1,20,208,224,114,33,145,225,215,32,153,0,124,247,48,0,231,253,34,255,167,0,fire
128,4,5,0,28,0,1,20,217,224,160,33,93,225,129,32,119,0,109,247,250,255,227,253,34,255,220,0,fire
128,4,5,0,28,0,1,20,208,224,185,33,40,225,43,32,20,0,68,247,8,0,57,254,52,255,31,1,fire
128,4,5,0,28,0,1,20,171,224,180,33,253,224,226,31,193,255,35,247,26,0,22,255,71,255,90,1,fire
128,4,5,0,28,0,1,20,127,224,170,33,210,224,151,31,128,255,60,247,174,255,97,255,62,255,103,1,fire
128,4,5,0,28,0,1,20,91,224,162,33,165,224,79,31,149,255,219,246,154,255,78,255,98,255,103,1,fire
128,4,5,0,28,0,1,20,54,224,142,33,126,224,23,31,165,255,202,246,198,255,146,255,151,255,90,1,fire
128,4,5,0,28,0,1,20,235,223,111,33,107,224,217,30,75,255,35,247,241,255,47,0,9,255,149,1,fire
128,4,5,0,28,0,1,20,140,223,82,33,94,224,135,30,32,255,41,247,43,0,42,0,128,254,232,1,fire
128,4,5,0,28,0,1,20,49,223,56,33,80,224,52,30,137,255,55,247,68,0,253,255,128,254,33,2,fire
128,4,5,0,28,0,1,20,225,222,27,33,65,224,236,29,125,255,179,246,118,0,230,255,206,254,255,1,fire
128,4,5,0,28,0,1,20,119,222,224,32,61,224,177,29,245,254,148,246,179,0,177,0,217,254,18,2,fire
128,4,5,0,28,0,1,20,251,221,151,32,72,224,129,29,158,254,232,246,150,0,117,1,196,254,0,2,fire
128,4,5,0,28,0,1,20,129,221,77,32,85,224,82,29,193,254,65,247,92,0,162,1,194,254,19,2,fire
128,4,5,0,28,0,1,20,37,221,31,32,71,224,8,29,218,254,105,247,42,0,139,0,209,254,56,2,fire
128,4,5,0,28,0,1,20,228,220,15,32,33,224,162,28,33,255,74,247,19,0,101,255,201,254,116,2,fire
128,4,5,0,28,0,1,20,174,220,4,32,217,223,27,28,150,255,104,247,245,255,136,254,231,254,91,3,fire
128,4,5,0,28,0,1,20,142,220,34,32,107,223,78,27,191,255,212,248,98,255,238,252,105,254,14,4,fire
128,4,5,0,28,0,1,20,109,220,92,32,239,222,69,26,214,0,184,249,7,254,114,252,133,253,62,5,fire
128,4,5,0,28,0,1,20,255,219,25,32,185,222,187,25,105,1,86,247,142,254,144,0,81,254,167,5,fire
128,4,5,0,28,0,1,20,252,218,40,31,255,222,207,25,96,255,19,247,185,255,171,6,134,254,44,4,fire
128,4,5,0,28,0,1,20,5,218,14,30,41,223,235,25,78,253,168,246,71,0,228,6,113,255,121,4,fire
128,4,5,0,28,0,1,20,41,217,184,28,190,222,161,25,27,255,108,246,43,1,217,4,57,1,22,8,fire
128,4,5,0,28,0,1,20,56,216,77,27,55,222,9,25,64,255,110,248,176,0,65,4,198,0,205,9,fire
128,4,5,0,28,0,1,20,99,215,116,26,246,221,65,24,131,252,61,251,65,1,247,1,111,254,116,7,fire
128,4,5,0,28,0,1,20,173,214,5,26,242,221,126,23,11,251,120,252,172,0,195,0,242,252,203,3,fire
128,4,5,0,28,0,1,20,108,214,89,26,16,222,214,22,32,253,128,252,153,1,18,253,216,252,247,0,fire
128,4,5,0,28,0,1,20,147,214,23,27,52,222,115,22,168,254,61,250,211,1,110,251,231,253,31,255,fire
128,4,5,0,28,0,1,20,213,214,175,27,100,222,124,22,34,254,5,248,220,1,24,253,81,255,216,253,fire
128,4,5,0,28,0,1,20,251,214,226,27,162,222,222,22,177,253,123,247,227,0,111,0,41,0,165,253,fire
128,4,5,0,28,0,1,20,3,215,247,27,218,222,35,23,7,253,239,248,159,0,217,0,205,255,7,254,fire
128,4,5,0,28,0,1,20,30,215,38,28,205,222,7,23,191,252,7,250,149,0,154,254,208,255,56,255,fire
128,4,5,0,28,0,1,20,102,215,147,28,130,222,147,22,52,252,26,249,1,0,25,252,199,255,231,255,fire
128,4,5,0,28,0,1,20,190,215,241,28,44,222,54,22,186,252,189,247,78,0,25,252,145,0,79,0,fire
128,4,5,0,28,0,1,20,231,215,225,28,5,222,90,22,220,252,77,247,227,0,156,255,155,1,208,255,fire
128,4,5,0,28,0,1,20,246,215,154,28,235,221,168,22,144,252,172,248,144,0,92,1,227,1,135,255,fire
128,4,5,0,28,0,1,20,29,216,149,28,209,221,203,22,88,252,184,249,38,0,240,255,39,1,219,254,fire
128,4,5,0,28,0,1,20,94,216,212,28,200,221,225,22,181,252,231,248,169,255,243,254,123,0,45,254,fire
128,4,5,0,28,0,1,20,134,216,10,29,229,221,12,23,114,253,186,247,0,0,176,255,16,0,90,254,fire
128,4,5,0,28,0,1,20,139,216,24,29,15,222,67,23,25,253,188,247,74,0,178,0,240,255,154,254,fire
128,4,5,0,28,0,1,20,140,216,25,29,31,222,88,23,238,252,127,248,20,0,103,0,246,255,68,255,fire
128,4,5,0,28,0,1,20,163,216,44,29,1,222,60,23,179,252,126,248,239,255,20,255,50,0,225,255,fire
128,4,5,0,28,0,1,20,177,216,57,29,223,221,17,23,146,252,201,247,70,0,213,254,26,0,91,0,fire
128,4,5,0,28,0,1,20,182,216,68,29,197,221,230,22,199,252,3,248,226,255,51,255,216,255,109,0,fire
128,4,5,0,28,0,1,20,170,216,87,29,188,221,171,22,26,253,171,248,198,255,64,255,52,255,154,0,fire
128,4,5,0,28,0,1,20,162,216,118,29,188,221,116,22,88,253,226,248,75,255,102,255,252,254,96,0,fire
128,4,5,0,28,0,1,20,155,216,133,29,197,221,97,22,65,254,118,249,231,254,74,0,70,255,87,0,fire
128,4,5,0,28,0,1,20,98,216,69,29,12,222,191,22,38,254,52,249,34,0,18,3,209,255,123,255,fire
128,4,5,0,28,0,1,20,50,216,4,29,62,222,7,23,66,252,139,247,227,255,202,2,234,255,60,255,fire
128,4,5,0,28,0,1,20,51,216,192,28,12,222,20,23,114,253,166,244,136,0,156,0,103,1,223,1,fire
128,4,5,0,28,0,1,20,2,216,52,28,170,221,219,22,195,254,61,245,2,1,164,0,120,1,59,5,fire
128,4,5,0,28,0,1,20,105,215,58,27,119,221,175,22,65,253,224,247,203,0,213,3,128,0,142,5,fire
128,4,5,0,28,0,1,20,229,214,162,26,91,221,75,22,16,251,193,251,149,0,204,1,7,255,237,2,fire
128,4,5,0,28,0,1,20,184,214,185,26,107,221,245,21,94,251,82,252,20,1,205,254,90,254,166,255,fire
128,4,5,0,28,0,1,20,222,214,78,27,161,221,217,21,110,253,97,250,26,1,66,253,122,254,204,253,fire
128,4,5,0,28,0,1,20,57,215,21,28,231,221,245,21,34,254,116,248,91,1,182,252,29,255,143,252,fire
128,4,5,0,28,0,1,20,152,215,168,28,41,222,75,22,14,254,141,247,133,0,118,254,245,255,100,252,fire
128,4,5,0,28,0,1,20,202,215,228,28,115,222,199,22,124,253,63,248,77,0,178,0,79,0,162,252,fire
128,4,5,0,28,0,1,20,249,215,47,29,168,222,8,23,44,253,94,249,99,255,34,0,176,255,19,253,fire
128,4,5,0,28,0,1,20,57,216,180,29,201,222,253,22,74,253,98,249,92,255,28,254,243,254,131,253,fire
128,4,5,0,28,0,1,20,140,216,71,30,216,222,225,22,159,253,39,248,66,255,104,253,42,255,247,253,fire
128,4,5,0,28,0,1,20,204,216,170,30,244,222,244,22,152,253,80,247,155,255,177,254,174,255,241,253,fire
128,4,5,0,28,0,1,20,235,216,207,30,27,223,47,23,164,253,130,247,177,255,91,0,27,0,49,254,fire
128,4,5,0,28,0,1,20,2,217,240,30,56,223,83,23,107,253,89,248,251,255,254,255,246,255,114,254,fire
128,4,5,0,35,0,2,6,3,2,0,0,0,0,fire
128,4,5,0,39,0,1,17,67,2,71,0,187,0,70,1,153,0,70,0,45,0,215,0,0,fire
128,4,5,0,39,0,1,17,50,2,90,0,194,0,42,1,147,0,64,0,39,0,195,0,0,fire
128,4,5,0,39,0,1,17,42,2,89,0,199,0,35,1,148,0,63,0,38,0,161,0,0,fire
128,4,5,0,39,0,1,17,29,2,92,0,223,0,216,0,88,0,65,0,40,0,133,0,0,fire
128,4,5,0,39,0,1,17,167,1,88,0,241,0,1,1,108,0,63,0,44,0,149,0,0,fire
128,4,5,0,39,0,1,17,4,1,79,0,248,0,10,1,124,0,80,0,47,0,140,0,0,fire
128,4,5,0,39,0,1,17,251,0,55,0,236,0,28,1,142,0,101,0,51,0,136,0,0,fire
128,4,5,0,39,0,1,17,172,0,57,0,202,0,112,1,15,1,141,0,100,0,134,0,0,fire
128,4,5,0,39,0,1,17,146,0,58,0,168,0,24,2,226,1,167,0,134,0,113,0,0,fire
128,4,5,0,39,0,1,17,120,0,70,0,166,0,128,2,34,2,232,0,161,0,140,0,0,fire
128,4,5,0,39,0,1,17,110,0,72,0,161,0,188,2,147,2,251,0,193,0,254,0,0,fire
128,4,5,0,39,0,1,17,127,0,72,0,152,0,37,3,178,2,7,1,203,0,92,1,0,fire
128,4,5,0,39,0,1,17,156,0,72,0,146,0,33,3,155,2,249,0,205,0,179,1,0,fire
128,4,5,0,28,0,1,20,0,216,123,31,152,224,200,22,167,254,79,244,132,1,122,0,92,1,8,4,fire
128,4,5,0,28,0,1,20,79,215,111,30,29,224,76,22,201,254,73,246,136,0,70,3,140,0,128,7,fire
128,4,5,0,28,0,1,20,183,214,182,29,198,223,175,21,194,252,100,249,14,1,117,1,103,255,205,5,fire
128,4,5,0,28,0,1,20,41,214,68,29,208,223,74,21,95,251,96,250,78,1,147,1,47,254,92,2,fire
128,4,5,0,28,0,1,20,214,213,65,29,18,224,12,21,145,252,237,251,199,0,122,0,136,253,231,255,fire
128,4,5,0,28,0,1,20,234,213,219,29,113,224,236,20,96,254,188,250,9,1,155,253,141,253,213,253,fire
128,4,5,0,28,0,1,20,67,214,182,30,209,224,241,20,185,254,196,248,159,0,158,252,34,254,147,252,fire
128,4,5,0,28,0,1,20,155,214,103,31,63,225,59,21,139,254,176,247,4,0,98,254,215,254,221,251,fire
128,4,5,0,28,0,1,20,183,214,212,31,206,225,155,21,24,254,0,248,187,255,151,0,102,254,246,251,fire
128,4,5,0,28,0,1,20,197,214,71,32,74,226,183,21,72,254,251,248,84,255,9,0,176,253,12,253,fire
128,4,5,0,28,0,1,20,236,214,208,32,137,226,138,21,242,253,34,249,87,255,47,254,221,253,23,254,fire
128,4,5,0,28,0,1,20,48,215,96,33,159,226,74,21,29,254,73,248,141,255,30,253,124,254,184,254,fire
128,4,5,0,28,0,1,20,110,215,211,33,176,226,35,21,56,254,86,247,236,255,143,253,19,255,224,254,fire
128,4,5,0,28,0,1,20,135,215,14,34,203,226,27,21,5,254,54,247,103,0,226,254,102,255,17,255,fire
128,4,5,0,28,0,1,20,136,215,54,34,250,226,28,21,204,253,175,247,133,0,146,255,30,255,221,254,fire
128,4,5,0,39,0,1,17,14,0,20,0,130,0,223,0,70,0,29,0,25,0,20,0,0,fist
128,3,4,0,22,2,fist
0,6,4,129,1,fist
0,3,0,0,134,1,fist
0,3,0,1,134,1,fist
0,3,0,2,134,1,fist
0,6,2,0,0,fist
128,6,0,192,0,12,151,202,214,125,248,0,255,31,9,8,77,121,32,77,121,111,0,0,2,1,6,17,6,66,72,18,74,127,44,72,71,185,222,4,169,1,0,6,213,fist
128,4,5,0,35,0,2,6,1,1,2,2,236,12,fist
128,4,5,0,28,0,1,20,32,212,199,40,237,244,162,19,143,1,209,247,231,0,66,0,248,254,16,0,fist
128,4,5,0,28,0,1,20,7,212,223,40,53,245,96,19,105,1,219,247,248,0,17,0,216,254,38,0,fist
128,4,5,0,28,0,1,20,227,211,239,40,129,245,21,19,51,1,241,247,31,1,77,0,193,254,28,0,fist
128,4,5,0,28,0,1,20,204,211,244,40,169,245,236,18,32,1,20,248,25,1,84,0,177,254,28,0,fist
128,4,5,0,28,0,1,20,184,211,251,40,207,245,193,18,16,1,26,248,7,1,70,0,174,254,32,0,fist
128,4,5,0,28,0,1,20,165,211,5,41,244,245,147,18,21,1,52,248,238,0,61,0,174,254,46,0,fist
128,4,5,0,28,0,1,20,149,211,19,41,23,246,98,18,33,1,61,248,225,0,37,0,161,254,67,0,fist
128,4,5,0,28,0,1,20,137,211,37,41,55,246,45,18,44,1,49,248,219,0,0,0,160,254,88,0,fist
128,4,5,0,28,0,1,20,127,211,58,41,86,246,245,17,37,1,69,248,174,0,251,255,157,254,99,0,fist
128,4,5,0,28,0,1,20,124,211,87,41,117,246,186,17,39,1,52,248,140,0,206,255,137,254,89,0,fist
128,4,5,0,28,0,1,20,127,211,123,41,157,246,131,17,86,1,25,248,149,0,174,255,113,254,54,0,fist
128,4,5,0,28,0,1,20,125,211,153,41,204,246,79,17,88,1,48,248,188,0,194,255,98,254,28,0,fist
128,4,5,0,28,0,1,20,125,211,186,41,254,246,24,17,80,1,28,248,187,0,181,255,74,254,17,0,fist
128,4,5,0,28,0,1,20,125,211,221,41,52,247,226,16,71,1,34,248,182,0,180,255,51,254,247,255,fist
128,4,5,0,28,0,1,20,127,211,255,41,115,247,176,16,99,1,20,248,173,0,193,255,42,254,208,255,fist
128,4,5,0,28,0,1,20,127,211,32,42,183,247,126,16,71,1,28,248,214,0,183,255,15,254,178,255,fist
128,4,5,0,28,0,1,20,126,211,65,42,251,247,75,16,65,1,21,248,222,0,178,255,6,254,173,255,fist
128,4,5,0,28,0,1,20,125,211,95,42,65,248,27,16,84,1,246,247,218,0,198,255,19,254,162,255,fist
128,4,5,0,28,0,1,20,117,211,116,42,136,248,239,15,91,1,248,247,214,0,10,0,33,254,157,255,fist
128,4,5,0,28,0,1,20,105,211,132,42,209,248,196,15,101,1,44,248,214,0,38,0,38,254,160,255,fist
128,4,5,0,28,0,1,20,102,211,158,42,27,249,150,15,122,1,41,248,214,0,223,255,14,254,161,255,fist
128,4,5,0,28,0,1,20,106,211,193,42,97,249,97,15,112,1,31,248,177,0,169,255,248,253,176,255,fist
128,4,5,0,28,0,1,20,109,211,227,42,167,249,40,15,117,1,10,248,162,0,178,255,242,253,191,255,fist
128,4,5,0,28,0,1,20,113,211,4,43,237,249,241,14,150,1,245,247,134,0,191,255,252,253,199,255,fist
128,4,5,0,28,0,1,20,115,211,34,43,51,250,188,14,162,1,241,247,123,0,213,255,5,254,196,255,fist
128,4,5,0,28,0,1,20,113,211,59,43,123,250,138,14,188,1,254,247,121,0,249,255,14,254,196,255,fist
128,4,5,0,28,0,1,20,114,211,84,43,194,250,91,14,205,1,9,248,106,0,240,255,34,254,195,255,fist
128,4,5,0,28,0,1,20,117,211,108,43,8,251,52,14,242,1,7,248,98,0,244,255,68,254,178,255,fist
128,4,5,0,28,0,1,20,122,211,132,43,82,251,20,14,5,2,40,248,88,0,245,255,87,254,145,255,fist
128,4,5,0,28,0,1,20,134,211,160,43,159,251,250,13,245,1,70,248,98,0,200,255,83,254,87,255,fist
128,4,5,0,28,0,1,20,149,211,191,43,241,251,226,13,210,1,45,248,122,0,165,255,71,254,27,255,fist
128,4,5,0,28,0,1,20,164,211,219,43,74,252,211,13,208,1,29,248,138,0,177,255,81,254,211,254,fist
128,4,5,0,28,0,1,20,173,211,237,43,175,252,210,13,238,1,248,247,136,0,5,0,98,254,121,254,fist
128,4,5,0,28,0,1,20,167,211,234,43,31,253,224,13,7,2,253,247,167,0,142,0,122,254,48,254,fist
128,4,5,0,28,0,1,20,155,211,225,43,148,253,239,13,23,2,29,248,174,0,200,0,118,254,30,254,fist
128,4,5,0,28,0,1,20,153,211,224,43,5,254,249,13,2,2,55,248,164,0,129,0,107,254,35,254,fist
128,4,5,0,28,0,1,20,158,211,232,43,112,254,0,14,24,2,19,248,125,0,75,0,111,254,56,254,fist
128,4,5,0,28,0,1,20,162,211,238,43,213,254,3,14,51,2,2,248,123,0,82,0,125,254,91,254,fist
128,4,5,0,28,0,1,20,165,211,242,43,50,255,4,14,77,2,240,247,101,0,101,0,153,254,135,254,fist
128,4,5,0,28,0,1,20,163,211,243,43,134,255,2,14,61,2,245,247,95,0,119,0,178,254,173,254,fist
128,4,5,0,28,0,1,20,159,211,241,43,217,255,252,13,54,2,251,247,94,0,140,0,174,254,182,254,fist
128,4,5,0,28,0,1,20,157,211,241,43,46,0,249,13,78,2,254,247,86,0,132,0,171,254,167,254,fist
128,4,5,0,28,0,1,20,156,211,238,43,135,0,249,13,66,2,253,247,89,0,144,0,172,254,120,254,fist
128,4,5,0,28,0,1,20,151,211,228,43,236,0,4,14,73,2,255,247,110,0,185,0,176,254,29,254,fist
128,4,5,0,28,0,1,20,140,211,205,43,95,1,31,14,84,2,61,248,132,0,19,1,194,254,182,253,fist
128,4,5,0,28,0,1,20,127,211,171,43,224,1,81,14,135,2,127,248,144,0,74,1,242,254,55,253,fist
128,4,5,0,28,0,1,20,117,211,126,43,108,2,162,14,183,2,139,248,142,0,122,1,78,255,156,252,fist
128,4,5,0,28,0,1,20,101,211,64,43,255,2,15,15,227,2,148,248,189,0,199,1,172,255,23,252,fist
128,4,5,0,28,0,1,20,91,211,252,42,158,3,144,15,6,3,253,248,208,0,212,1,210,255,153,251,fist
128,4,5,0,28,0,1,20,107,211,199,42,76,4,30,16,95,3,99,249,199,0,75,1,175,255,57,251,fist
128,4,5,0,28,0,1,20,152,211,170,42,255,4,180,16,233,3,111,249,183,0,142,0,151,255,15,251,fist
128,4,5,0,28,0,1,20,208,211,146,42,167,5,77,17,127,4,10,249,208,0,63,0,191,255,48,251,fist
128,4,5,0,28,0,1,20,249,211,107,42,66,6,222,17,162,4,248,248,180,0,174,0,0,0,122,251,fist
128,4,5,0,28,0,1,20,26,212,59,42,206,6,106,18,161,4,24,249,188,0,222,0,49,0,187,251,fist
128,4,5,0,28,0,1,20,65,212,23,42,80,7,230,18,129,4,39,249,171,0,158,0,10,0,237,251,fist
128,4,5,0,28,0,1,20,104,212,245,41,207,7,87,19,140,4,32,249,213,0,133,0,223,255,17,252,fist
128,4,5,0,28,0,1,20,136,212,207,41,76,8,189,19,155,4,243,248,182,0,196,0,212,255,46,252,fist
128,4,5,0,28,0,1,20,162,212,155,41,196,8,47,20,198,4,250,248,201,0,2,1,43,0,18,252,fist
128,4,5,0,28,0,1,20,175,212,85,41,52,9,166,20,0,5,199,248,241,0,89,1,126,0,13,252,fist
128,4,5,0,28,0,1,20,163,212,243,40,178,9,22,21,223,4,66,249,15,1,54,2,114,0,17,252,fist
128,4,5,0,28,0,1,20,157,212,144,40,64,10,132,21,7,5,237,249,38,1,54,2,42,0,7,252,fist
128,4,5,0,28,0,1,20,171,212,71,40,192,10,234,21,120,5,213,249,57,1,129,1,1,0,88,252,fist
128,4,5,0,28,0,1,20,189,212,12,40,37,11,70,22,166,5,200,249,36,1,30,1,54,0,218,252,fist
128,4,5,0,28,0,1,20,196,212,205,39,128,11,153,22,190,5,241,249,38,1,75,1,83,0,55,253,fist
128,4,5,0,28,0,1,20,201,212,144,39,208,11,226,22,205,5,59,250,31,1,66,1,94,0,155,253,fist
128,4,5,0,28,0,1,20,208,212,96,39,16,12,32,23,229,5,72,250,62,1,236,0,79,0,7,254,fist
128,4,5,0,28,0,1,20,218,212,60,39,71,12,83,23,237,5,104,250,58,1,179,0,55,0,91,254,fist
128,4,5,0,28,0,1,20,231,212,34,39,116,12,126,23,11,6,101,250,61,1,120,0,44,0,154,254,fist
128,4,5,0,28,0,1,20,239,212,6,39,160,12,164,23,254,5,139,250,67,1,144,0,33,0,194,254,fist
128,4,5,0,28,0,1,20,245,212,237,38,203,12,195,23,244,5,200,250,61,1,143,0,17,0,243,254,fist
128,4,5,0,28,0,1,20,1,213,221,38,242,12,220,23,245,5,191,250,34,1,97,0,246,255,6,255,fist
128,4,5,0,28,0,1,20,16,213,211,38,26,13,241,23,8,6,90,250,8,1,96,0,231,255,239,254,fist
128,4,5,0,28,0,1,20,22,213,188,38,73,13,8,24,21,6,127,250,247,0,186,0,250,255,220,254,fist
128,4,5,0,28,0,1,20,19,213,148,38,131,13,34,24,8,6,111,250,25,1,38,1,4,0,149,254,fist
128,4,5,0,28,0,1,20,9,213,90,38,202,13,67,24,38,6,124,250,43,1,151,1,16,0,78,254,fist
128,4,5,0,28,0,1,20,251,212,25,38,15,14,105,24,24,6,116,250,82,1,169,1,53,0,49,254,fist
128,4,5,0,28,0,1,20,238,212,212,37,81,14,151,24,46,6,142,250,112,1,158,1,92,0,26,254,fist
128,4,5,0,28,0,1,20,225,212,158,37,111,14,194,24,121,6,162,250,225,1,254,0,148,0,197,254,fist
128,4,5,0,28,0,1,20,221,212,136,37,102,14,225,24,122,6,183,250,43,2,3,0,147,0,149,255,fist
128,4,5,0,28,0,1,20,235,212,146,37,75,14,250,24,51,6,227,250,32,2,50,255,104,0,220,255,fist
128,4,5,0,28,0,1,20,27,213,183,37,50,14,36,25,64,6,113,251,241,1,69,254,66,0,177,255,fist
128,4,5,0,28,0,1,20,97,213,248,37,1,14,83,25,119,6,93,251,244,1,88,253,80,0,234,255,fist
128,4,5,0,28,0,1,20,170,213,98,38,154,13,102,25,113,6,163,250,5,2,104,252,79,0,234,0,fist
128,4,5,0,28,0,1,20,217,213,213,38,252,12,88,25,89,6,0,250,60,2,55,252,152,0,46,2,fist
128,4,5,0,28,0,1,20,235,213,88,39,26,12,28,25,207,5,84,249,75,2,252,251,218,0,181,3,fist
128,4,5,0,28,0,1,20,221,213,228,39,2,11,169,24,217,5,70,248,78,2,20,252,248,0,82,5,fist
128,4,5,0,28,0,1,20,167,213,77,40,237,9,20,24,20,6,50,247,101,2,103,253,44,1,139,6,fist
128,4,5,0,28,0,1,20,52,213,111,40,237,8,115,23,125,6,196,247,39,2,124,255,140,1,216,6,fist
128,4,5,0,28,0,1,20,199,212,141,40,232,7,209,22,35,6,195,248,244,1,114,255,165,1,248,6,fist
128,4,5,0,28,0,1,20,103,212,206,40,170,6,10,22,107,5,105,248,234,1,97,254,168,1,66,8,fist
128,4,5,0,28,0,1,20,22,212,38,41,70,5,34,21,4,5,208,247,202,1,168,253,145,1,47,9,fist
128,4,5,0,28,0,1,20,191,211,119,41,202,3,25,20,168,4,120,247,156,1,185,253,139,1,16,10,fist
128,4,5,0,28,0,1,20,85,211,171,41,60,2,245,18,72,4,22,247,102,1,98,254,171,1,216,10,fist
128,4,5,0,28,0,1,20,209,210,180,41,161,0,190,17,210,3,244,246,90,1,83,255,226,1,120,11,fist
128,4,5,0,28,0,1,20,60,210,150,41,0,255,121,16,58,3,52,247,70,1,37,0,12,2,230,11,fist
128,4,5,0,28,0,1,20,172,209,100,41,89,253,39,15,157,2,77,247,78,1,89,0,15,2,39,12,fist
128,4,5,0,28,0,1,20,39,209,34,41,175,251,206,13,14,2,66,247,62,1,113,0,22,2,80,12,fist
128,4,5,0,28,0,1,20,174,208,208,40,3,250,117,12,130,1,63,247,58,1,130,0,58,2,75,12,fist
128,4,5,0,28,0,1,20,65,208,106,40,91,248,38,11,233,0,45,247,67,1,186,0,105,2,18,12,fist
128,4,5,0,28,0,1,20,216,207,237,39,189,246,220,9,141,0,31,247,104,1,21,1,110,2,238,11,fist
128,4,5,0,28,0,1,20,110,207,80,39,41,245,158,8,254,255,25,247,131,1,175,1,132,2,180,11,fist
128,4,5,0,28,0,1,20,9,207,156,38,158,243,99,7,81,255,65,247,171,1,6,2,125,2,152,11,fist
128,4,5,0,28,0,1,20,180,206,229,37,38,242,46,6,198,254,138,247,157,1,246,1,86,2,56,11,fist
128,4,5,0,28,0,1,20,112,206,43,37,187,240,254,4,134,254,195,247,141,1,215,1,65,2,246,10,fist
128,4,5,0,28,0,1,20,53,206,101,36,86,239,213,3,40,254,252,247,150,1,253,1,82,2,215,10,fist
128,4,5,0,28,0,1,20,2,206,146,35,255,237,183,2,168,253,29,248,185,1,42,2,73,2,132,10,fist
128,4,5,0,28,0,1,20,214,205,188,34,191,236,164,1,12,253,113,248,230,1,56,2,19,2,15,10,fist
128,4,5,0,28,0,1,20,176,205,223,33,146,235,155,0,170,252,200,248,234,1,89,2,230,1,174,9,fist
128,4,5,0,28,0,1,20,145,205,252,32,115,234,159,255,150,252,8,249,250,1,115,2,224,1,94,9,fist
128,4,5,0,28,0,1,20,120,205,19,32,93,233,174,254,47,252,50,249,2,2,145,2,229,1,37,9,fist
128,4,5,0,28,0,1,20,95,205,25,31,82,232,198,253,187,251,119,249,4,2,237,2,199,1,247,8,fist
128,4,5,0,28,0,1,20,74,205,24,30,82,231,223,252,100,251,229,249,247,1,9,3,161,1,224,8,fist
128,4,5,0,28,0,1,20,60,205,21,29,95,230,247,251,52,251,118,250,7,2,244,2,112,1,199,8,fist
128,4,5,0,28,0,1,20,57,205,19,28,115,229,4,251,208,250,186,250,11,2,181,2,80,1,225,8,fist
128,4,5,0,28,0,1,20,61,205,14,27,146,228,18,250,103,250,237,250,45,2,180,2,47,1,206,8,fist
128,4,5,0,28,0,1,20,70,205,250,25,178,227,38,249,9,250,4,251,63,2,243,2,61,1,220,8,fist
128,4,5,0,28,0,1,20,77,205,198,24,206,226,69,248,104,249,119,251,119,2,164,3,83,1,248,8,fist
128,4,5,0,28,0,1,20,84,205,117,23,232,225,121,247,30,249,216,251,133,2,93,4,112,1,232,8,fist
128,4,5,0,28,0,1,20,92,205,38,22,15,225,216,246,209,248,124,252,228,2,175,4,160,1,252,7,fist
128,4,5,0,28,0,1,20,103,205,234,20,72,224,95,246,20,248,190,252,51,3,176,4,185,1,249,6,fist
128,4,5,0,28,0,1,20,104,205,191,19,160,223,20,246,56,247,142,252,71,3,223,4,142,1,218,5,fist
128,4,5,0,28,0,1,20,98,205,181,18,18,223,2,246,68,247,173,252,7,3,246,4,110,1,100,4,fist
128,4,5,0,28,0,1,20,87,205,198,17,150,222,33,246,232,247,70,253,218,2,253,4,133,1,6,3,fist
128,4,5,0,28,0,1,20,77,205,1,17,43,222,99,246,91,248,174,253,150,2,152,4,127,1,202,1,fist
128,4,5,0,28,0,1,20,66,205,118,16,221,221,195,246,156,248,155,253,142,2,219,3,105,1,142,0,fist
128,4,5,0,28,0,1,20,45,205,20,16,170,221,73,247,10,249,68,253,159,2,164,3,63,1,113,255,fist
128,4,5,0,28,0,1,20,16,205,190,15,130,221,254,247,86,249,240,252,113,2,9,4,60,1,157,254,fist
128,4,5,0,28,0,1,20,228,204,86,15,97,221,233,248,87,249,197,252,74,2,28,5,19,1,216,253,fist
128,4,5,0,28,0,1,20,181,204,224,14,61,221,12,250,131,249,247,252,227,1,17,6,46,1,242,252,fist
128,4,5,0,28,0,1,20,139,204,100,14,21,221,82,251,193,249,106,253,186,1,92,6,141,1,245,251,fist
128,4,5,0,28,0,1,20,107,204,247,13,239,220,174,252,78,250,127,253,206,1,82,6,209,1,105,251,fist
128,4,5,0,28,0,1,20,80,204,114,13,200,220,26,254,198,250,36,253,210,1,237,6,243,1,116,251,fist
128,4,5,0,28,0,1,20,60,204,205,12,155,220,157,255,153,250,246,252,200,1,187,7,54,2,120,251,fist
128,4,5,0,28,0,1,20,56,204,27,12,104,220,55,1,92,250,32,253,164,1,42,8,149,2,59,251,fist
128,4,5,0,28,0,1,20,67,204,82,11,47,220,221,2,141,250,143,253,174,1,168,8,240,2,61,251,fist
128,4,5,0,28,0,1,20,95,204,134,10,242,219,120,4,109,250,196,253,215,1,121,8,50,3,115,251,fist
128,4,5,0,28,0,1,20,151,204,221,9,172,219,2,6,215,249,91,253,198,1,140,7,141,3,79,251,fist
128,4,5,0,28,0,1,20,233,204,72,9,92,219,147,7,94,250,44,253,189,1,46,7,16,4,250,250,fist
128,4,5,0,28,0,1,20,78,205,144,8,2,219,48,9,141,250,95,253,237,1,216,7,160,4,37,251,fist
128,4,5,0,28,0,1,20,188,205,165,7,168,218,208,10,94,250,241,253,30,2,176,8,237,4,161,251,fist
128,4,5,0,28,0,1,20,53,206,168,6,79,218,82,12,100,250,3,255,235,1,144,8,8,5,57,252,fist
128,4,5,0,28,0,1,20,177,206,186,5,235,217,125,13,61,250,65,1,71,2,4,7,13,5,61,253,fist
128,4,5,0,28,0,1,20,34,207,42,5,106,217,224,13,126,249,216,0,24,2,79,2,153,4,40,254,fist
128,4,5,0,28,0,1,20,153,207,57,5,211,216,215,13,201,249,50,255,44,2,85,254,64,4,183,254,fist
128,4,5,0,28,0,1,20,23,208,137,5,45,216,150,13,238,249,158,254,23,2,131,252,63,4,20,255,fist
128,4,5,0,28,0,1,20,160,208,4,6,122,215,44,13,170,249,94,253,169,1,85,251,55,4,170,255,fist
128,4,5,0,28,0,1,20,49,209,128,6,201,214,209,12,122,249,106,252,60,1,169,251,49,4,201,255,fist
128,4,5,0,28,0,1,20,191,209,211,6,36,214,147,12,100,249,86,252,228,0,211,252,36,4,227,255,fist
128,4,5,0,28,0,1,20,72,210,3,7,135,213,95,12,39,249,208,252,85,0,153,253,235,3,241,255,fist
128,4,5,0,28,0,1,20,204,210,52,7,239,212,23,12,1,249,236,252,203,255,103,253,135,3,43,0,fist
128,4,5,0,28,0,1,20,72,211,103,7,96,212,200,11,246,248,137,252,95,255,94,253,37,3,115,0,fist
128,4,5,0,28,0,1,20,186,211,140,7,224,211,127,11,243,248,157,252,47,255,198,253,213,2,131,0,fist
128,4,5,0,28,0,1,20,27,212,157,7,113,211,59,11,255,248,226,252,16,255,61,254,109,2,176,0,fist
128,4,5,0,28,0,1,20,116,212,167,7,11,211,247,10,192,248,250,252,226,254,109,254,36,2,180,0,fist
128,4,5,0,28,0,1,20,194,212,164,7,179,210,195,10,169,248,241,252,199,254,236,254,228,1,173,0,fist
128,4,5,0,28,0,1,20,7,213,144,7,102,210,160,10,169,248,52,253,172,254,130,255,180,1,150,0,fist
128,4,5,0,28,0,1,20,67,213,117,7,34,210,129,10,189,248,97,253,165,254,185,255,124,1,153,0,fist
128,4,5,0,28,0,1,20,122,213,99,7,232,209,107,10,188,248,54,253,143,254,201,255,60,1,105,0,fist
128,4,5,0,28,0,1,20,167,213,73,7,185,209,104,10,165,248,49,253,102,254,69,0,246,0,65,0,fist
128,4,5,0,28,0,1,20,203,213,38,7,149,209,113,10,169,248,72,253,78,254,172,0,174,0,56,0,fist
128,4,5,0,28,0,1,20,231,213,253,6,119,209,124,10,112,248,98,253,25,254,225,0,107,0,49,0,fist
128,4,5,0,28,0,1,20,250,213,205,6,98,209,136,10,140,248,104,253,235,253,16,1,25,0,84,0,fist
128,4,5,0,28,0,1,20,252,213,152,6,91,209,147,10,164,248,44,253,237,253,55,1,160,255,153,0,fist
128,4,5,0,28,0,1,20,243,213,104,6,96,209,162,10,191,248,189,252,201,253,68,1,47,255,189,0,fist
128,4,5,0,28,0,1,20,227,213,59,6,108,209,176,10,190,248,173,252,115,253,88,1,201,254,192,0,fist
128,4,5,0,28,0,1,20,197,213,22,6,131,209,183,10,197,248,234,252,122,253,46,1,90,254,167,0,fist
128,4,5,0,28,0,1,20,161,213,16,6,164,209,183,10,173,248,106,252,60,253,179,0,210,253,125,0,fist
128,4,5,0,28,0,1,20,101,213,18,6,213,209,158,10,112,248,248,252,130,253,74,0,67,253,123,0,fist
128,4,5,0,28,0,1,20,28,213,37,6,14,210,102,10,123,248,254,252,108,253,158,255,181,252,182,0,fist
128,4,5,0,28,0,1,20,185,212,61,6,93,210,21,10,219,248,152,253,192,253,69,255,8,252,211,0,fist
128,4,5,0,28,0,1,20,67,212,111,6,197,210,207,9,124,248,154,252,27,254,26,255,99,251,190,0,fist
128,4,5,0,28,0,1,20,179,211,138,6,73,211,147,9,129,248,217,252,104,254,191,255,190,250,218,0,fist
128,4,5,0,28,0,1,20,18,211,131,6,220,211,83,9,198,248,83,253,91,254,82,0,63,250,72,1,fist
128,4,5,0,28,0,1,20,63,210,98,6,166,212,24,9,25,249,125,253,1,255,203,0,130,249,163,1,fist
128,4,5,0,28,0,1,20,94,209,63,6,136,213,225,8,187,248,158,252,73,255,254,0,239,248,178,1,fist
128,4,5,0,28,0,1,20,105,208,252,5,134,214,176,8,243,248,59,253,194,255,186,1,85,248,255,1,fist
128,4,5,0,28,0,1,20,100,207,160,5,158,215,110,8,85,249,55,254,59,0,245,1,192,247,136,2,fist
128,4,5,0,28,0,1,20,83,206,78,5,204,216,250,7,90,249,218,253,194,0,55,1,27,247,73,3,fist
128,4,5,0,28,0,1,20,62,205,253,4,11,218,90,7,143,249,242,253,211,0,160,0,170,246,2,4,fist
128,4,5,0,28,0,1,20,30,204,154,4,101,219,149,6,102,250,85,254,187,1,141,0,35,246,220,4,fist
128,4,5,0,28,0,1,20,0,203,25,4,206,220,170,5,70,250,80,253,41,2,178,0,232,245,6,6,fist
128,4,5,0,28,0,1,20,233,201,104,3,71,222,177,4,223,250,212,253,87,2,103,1,200,245,202,6,fist
128,4,5,0,28,0,1,20,219,200,158,2,208,223,147,3,171,251,121,254,191,2,111,1,167,245,178,7,fist
128,4,5,0,28,0,1,20,220,199,204,1,103,225,67,2,216,251,178,254,76,3,7,1,143,245,173,8,fist
128,4,5,0,28,0,1,20,239,198,243,0,12,227,206,0,132,251,3,254,122,4,221,0,131,245,144,9,fist
128,4,5,0,28,0,1,20,24,198,37,0,191,228,60,255,64,251,172,253,241,4,109,0,105,245,10,10,fist
128,4,5,0,28,0,1,20,89,197,75,255,128,230,169,253,190,251,132,254,94,5,156,0,105,245,28,10,fist
128,4,5,0,28,0,1,20,187,196,104,254,60,232,2,252,128,252,88,255,174,5,153,0,211,245,142,10,fist
128,4,5,0,28,0,1,20,64,196,144,253,239,233,56,250,23,253,203,255,167,6,33,0,104,246,42,11,fist
128,4,5,0,28,0,1,20,234,195,200,252,148,235,85,248,78,253,5,0,71,7,175,255,17,247,159,11,fist
128,4,5,0,28,0,1,20,178,195,23,252,54,237,116,246,136,253,99,0,91,7,69,255,89,247,120,11,fist
128,4,5,0,28,0,1,20,146,195,137,251,210,238,157,244,195,253,23,1,30,8,159,254,191,247,16,11,fist
8,34,1,128,22,4,5,0,39,0,fist
0,0,107,0,91,2,190,0,35,0,23,0,41,0,0,128,25,4,5,0,28,0,1,20,121,202,130,2,20,225,100,16,252,250,74,255,3,2,94,255,140,6,243,0,128,22,4,5,0,39,0,1,17,119,0,140,0,141,0,99,2,189,0,37,0,25,0,40,0,0,128,25,4,5,0,28,0,1,20,0,203,92,2,9,224,32,16,171,250,63,255,229,1,59,254,214,5,140,0,128,22,4,5,0,39,0,1,17,121,0,139,0,135,0,6,2,173,0,35,0,25,0,37,0,0,128,25,4,5,0,28,0,1,20,132,203,105,fist
0,22,4,5,0,39,0,1,17,105,0,141,0,154,0,16,2,171,0,34,0,27,0,32,0,0,128,25,4,5,0,28,0,1,20,251,203,123,2,49,222,133,15,212,249,80,254,193,1,167,253,112,4,96,0,128,22,4,5,0,39,0,1,17,93,0,109,0,153,0,249,1,156,0,31,0,26,0,34,0,0,128,25,4,5,0,28,0,1,20,100,204,124,2,119,221,75,15,189,249,2,254,119,1,108,254,183,3,111,0,128,22,4,5,0,39,0,1,17,198,0,180,0,151,0,202,1,138,0,31,0,fist
0,0,0,128,25,4,5,0,28,0,1,20,198,204,95,2,219,220,53,15,219,249,247,253,166,0,174,255,3,3,57,0,128,22,4,5,0,39,0,1,17,fist
0,0,127,0,221,1,129,0,31,0,29,0,39,0,0,128,25,4,5,0,28,0,1,20,28,205,45,2,103,220,81,15,214,249,24,254,100,0,222,0,65,2,148,255,128,22,4,5,0,39,0,1,17,206,0,180,0,134,0,192,1,114,0,28,0,26,0,34,0,0,128,25,4,5,0,28,0,1,20,98,205,251,1,32,220,151,15,87,249,20,254,194,0,139,1,105,1,210,254,128,22,4,5,0,39,0,1,17,211,0,179,0,106,0,155,1,103,0,28,0,26,0,35,0,0,128,25,4,5,0,28,0,1,20,151,205,216,1,233,219,201,15,49,249,30,255,77,0,2,1,159,0,135,254,128,22,4,5,0,39,0,1,17,208,0,174,0,107,0,162,1,111,0,29,0,25,0,34,0,0,fist
128,4,5,0,28,0,1,20,189,205,16,2,180,219,194,15,107,249,76,255,16,0,192,254,208,255,108,254,fist
128,4,5,0,39,0,1,17,110,0,92,0,114,0,242,1,141,0,35,0,26,0,37,0,0,fist
128,4,5,0,28,0,1,20,217,205,149,2,140,219,171,15,174,249,97,254,250,255,126,253,23,255,55,254,fist
128,4,5,0,39,0,1,17,106,0,93,0,106,0,166,1,130,0,31,0,22,0,41,0,0,fist
128,4,5,0,28,0,1,20,217,205,12,3,155,219,185,15,127,249,15,254,239,0,106,254,76,254,233,253,fist
128,4,5,0,39,0,1,17,87,0,83,0,104,0,148,1,131,0,31,0,23,0,41,0,0,fist
128,4,5,0,28,0,1,20,192,205,130,3,206,219,197,15,46,249,255,253,33,1,152,254,106,253,2,254,fist
128,4,5,0,39,0,1,17,98,0,84,0,104,0,178,1,134,0,33,0,23,0,44,0,0,fist
128,4,5,0,28,0,1,20,142,205,16,4,32,220,193,15,172,249,218,253,98,1,39,254,148,252,49,254,fist
128,4,5,0,39,0,1,17,116,0,80,0,102,0,176,1,127,0,32,0,22,0,42,0,0,fist
128,4,5,0,28,0,1,20,73,205,154,4,153,220,205,15,70,250,80,253,110,1,195,254,211,251,80,254,fist
128,4,5,0,39,0,1,17,115,0,76,0,92,0,112,1,108,0,26,0,20,0,37,0,0,fist
128,4,5,0,28,0,1,20,236,204,9,5,70,221,255,15,194,250,149,253,225,1,223,255,14,251,251,253,fist
128,4,5,0,39,0,1,17,112,0,62,0,93,0,144,1,123,0,29,0,22,0,32,0,0,fist
128,4,5,0,28,0,1,20,131,204,126,5,21,222,69,16,202,250,167,253,97,2,32,0,117,250,128,253,fist
128,4,5,0,39,0,1,17,117,0,61,0,90,0,169,1,129,0,29,0,21,0,32,0,0,fist
128,4,5,0,28,0,1,20,24,204,11,6,241,222,132,16,226,250,25,254,145,2,136,255,22,250,19,253,fist
128,4,5,0,39,0,1,17,105,0,54,0,106,0,220,1,138,0,33,0,21,0,29,0,0,fist
128,4,5,0,28,0,1,20,182,203,217,6,205,223,174,16,148,251,12,254,160,2,40,254,226,249,202,252,fist
128,4,5,0,39,0,1,17,83,0,53,0,106,0,226,1,144,0,33,0,24,0,29,0,0,fist
128,4,5,0,28,0,1,20,91,203,210,7,183,224,224,16,17,252,107,253,135,3,155,253,151,249,86,252,fist
128,4,5,0,39,0,1,17,98,0,54,0,114,0,194,1,134,0,32,0,25,0,27,0,0,fist
128,4,5,0,28,0,1,20,11,203,220,8,176,225,40,17,242,251,94,252,195,3,165,253,109,249,191,251,fist
128,4,5,0,39,0,1,17,92,0,46,0,108,0,178,1,120,0,29,0,24,0,27,0,0,fist
128,4,5,0,28,0,1,20,190,202,210,9,182,226,124,17,197,252,192,252,188,3,39,254,97,249,171,251,fist
128,4,5,0,39,0,1,17,91,0,47,0,103,0,178,1,119,0,30,0,25,0,34,0,0,fist
128,4,5,0,28,0,1,20,118,202,186,10,207,227,228,17,156,253,216,252,227,3,180,254,70,249,98,251,fist
128,4,5,0,39,0,1,17,82,0,44,0,87,0,14,2,147,0,30,0,26,0,33,0,0,fist
128,4,5,0,28,0,1,20,51,202,153,11,254,228,97,18,176,253,227,251,107,4,54,255,26,249,5,251,fist
128,4,5,0,39,0,1,17,84,0,51,0,135,0,207,2,229,0,48,0,95,0,40,0,0,fist
128,4,5,0,35,0,2,6,3,0,0,0,0,0,fist
128,4,5,0,28,0,1,20,254,201,145,12,55,230,225,18,58,254,155,251,189,3,219,254,214,248,167,250,fist
128,4,5,0,39,0,1,17,66,0,51,0,135,0,210,2,237,0,54,0,117,0,43,0,0,fist
128,4,5,0,28,0,1,20,192,201,117,13,151,231,102,19,65,255,194,251,128,4,131,255,80,248,168,250,fist
128,4,5,0,39,0,1,17,92,0,56,0,147,0,226,2,247,0,56,0,118,0,47,0,0,fist
128,4,5,0,28,0,1,20,103,201,7,14,46,233,242,19,101,255,175,251,253,4,138,1,169,247,36,251,fist
128,4,5,0,39,0,1,17,84,0,60,0,149,0,233,2,252,0,58,0,121,0,43,0,0,fist
128,4,5,0,28,0,1,20,23,201,190,14,201,234,86,20,19,255,59,252,250,4,125,0,32,247,107,251,fist
128,4,5,0,39,0,1,17,85,0,72,0,154,0,153,2,247,0,56,0,122,0,43,0,0,fist
128,4,5,0,28,0,1,20,227,200,163,15,96,236,183,20,122,255,255,250,77,5,133,255,29,247,7,251,fist
128,4,5,0,39,0,1,17,120,0,72,0,153,0,228,1,173,0,43,0,82,0,46,0,0,fist
128,4,5,0,28,0,1,20,163,200,50,16,23,238,42,21,135,255,169,250,2,6,134,1,28,247,46,251,fist
128,4,5,0,39,0,1,17,155,0,78,0,162,0,216,1,179,0,37,0,47,0,49,0,0,fist
128,4,5,0,28,0,1,20,108,200,190,16,205,239,142,21,68,0,116,251,206,5,101,1,44,247,103,251,fist
128,4,5,0,39,0,1,17,147,0,74,0,162,0,18,2,206,0,41,0,45,0,47,0,0,fist
128,4,5,0,28,0,1,20,95,200,124,17,91,241,240,21,137,1,145,251,93,6,213,255,217,247,44,251,fist
128,4,5,0,39,0,1,17,148,0,71,0,161,0,20,2,220,0,43,0,38,0,48,0,0,fist
128,4,5,0,28,0,1,20,131,200,140,18,191,242,78,22,6,2,151,251,9,7,150,253,79,248,180,250,fist
128,4,5,0,39,0,1,17,149,0,59,0,159,0,251,1,212,0,46,0,37,0,47,0,0,fist
128,4,5,0,28,0,1,20,232,200,6,20,225,243,165,22,134,1,71,251,33,7,159,250,225,248,60,250,fist
128,4,5,0,39,0,1,17,119,0,51,0,122,0,245,1,215,0,47,0,34,0,39,0,0,fist
128,4,5,0,28,0,1,20,149,201,254,21,173,244,222,22,159,1,216,251,189,6,228,246,146,249,69,250,fist
128,4,5,0,39,0,1,17,64,0,43,0,117,0,9,2,224,0,47,0,32,0,31,0,0,fist
128,4,5,0,28,0,1,20,140,202,80,24,61,245,17,23,232,2,110,249,52,6,89,244,73,250,12,250,fist
128,4,5,0,39,0,1,17,82,0,46,0,105,0,182,1,188,0,41,0,29,0,33,0,0,fist
128,4,5,0,28,0,1,20,141,203,96,26,220,245,98,23,147,3,235,247,94,6,194,245,211,250,141,249,fist
128,4,5,0,39,0,1,17,106,0,52,0,123,0,188,1,164,0,37,0,32,0,33,0,0,fist
128,4,5,0,28,0,1,20,122,204,10,28,166,246,213,23,60,3,39,248,193,5,59,248,6,251,0,249,fist
128,4,5,0,39,0,1,17,109,0,52,0,134,0,171,1,180,0,36,0,29,0,31,0,0,fist
128,4,5,0,28,0,1,20,81,205,108,29,117,247,67,24,240,2,146,249,39,5,164,249,86,251,104,249,fist
128,4,5,0,39,0,1,17,111,0,54,0,140,0,239,1,190,0,36,0,27,0,30,0,0,fist
128,4,5,0,28,0,1,20,76,206,228,30,56,248,183,24,10,4,244,247,95,4,244,248,146,251,29,249,fist
128,4,5,0,39,0,1,17,114,0,52,0,129,0,252,1,167,0,36,0,26,0,30,0,0,fist
128,4,5,0,28,0,1,20,67,207,33,32,25,249,80,25,205,4,26,248,1,5,63,250,239,251,103,248,fist
128,4,5,0,39,0,1,17,99,0,51,0,132,0,245,1,173,0,42,0,30,0,32,0,0,fist
128,4,5,0,28,0,1,20,15,208,14,33,250,249,220,25,242,3,188,248,248,4,248,251,73,252,13,249,fist
128,4,5,0,39,0,1,17,82,0,48,0,127,0,7,2,193,0,48,0,33,0,35,0,0,fist
128,4,5,0,28,0,1,20,247,208,19,34,185,250,91,26,106,4,167,249,253,3,243,250,140,252,103,249,fist
128,4,5,0,39,0,1,17,78,0,56,0,166,0,174,2,192,0,63,0,51,0,42,0,0,fist
128,4,5,0,28,0,1,20,19,210,63,35,94,251,227,26,109,5,63,249,166,3,133,249,218,252,28,249,fist
128,4,5,0,39,0,1,17,117,0,67,0,170,0,131,2,182,0,64,0,61,0,47,0,0,fist
128,4,5,0,28,0,1,20,64,211,107,36,251,251,103,27,24,6,25,247,66,3,94,249,246,252,3,249,fist
128,4,5,0,39,0,1,17,124,0,81,0,171,0,143,2,184,0,70,0,74,0,55,0,0,fist
128,4,5,0,28,0,1,20,38,212,38,37,202,252,251,27,65,6,2,246,238,3,104,252,73,253,219,248,fist
128,4,5,0,39,0,1,17,120,0,79,0,203,0,192,2,191,0,75,0,86,0,60,0,0,fist
128,4,5,0,28,0,1,20,143,212,81,37,222,253,125,28,2,6,198,245,239,3,207,0,53,253,132,249,fist
128,4,5,0,39,0,1,17,114,0,82,0,23,1,202,2,175,0,75,0,91,0,61,0,0,fist
128,4,5,0,28,0,1,20,139,212,5,37,59,255,235,28,68,6,152,246,220,3,168,4,7,253,36,250,fist
128,4,5,0,39,0,1,17,114,0,78,0,14,1,114,2,161,0,65,0,84,0,57,0,0,fist
128,4,5,0,28,0,1,20,93,212,114,36,160,0,97,29,49,6,158,248,163,4,201,5,121,253,166,250,fist
128,4,5,0,39,0,1,17,69,0,67,0,25,1,102,2,158,0,65,0,84,0,54,0,0,fist
128,4,5,0,28,0,1,20,88,212,15,36,157,1,201,29,16,6,95,248,160,5,64,3,253,253,120,251,fist
128,4,5,0,39,0,1,17,55,0,49,0,29,1,68,2,152,0,58,0,75,0,46,0,0,fist
128,4,5,0,28,0,1,20,110,212,223,35,25,2,27,30,213,5,33,247,159,6,202,0,189,254,141,252,fist
128,4,5,0,39,0,1,17,53,0,50,0,18,1,62,2,154,0,45,0,60,0,35,0,0,fist
128,4,5,0,28,0,1,20,129,212,194,35,64,2,86,30,116,6,155,246,190,6,196,255,152,255,254,253,fist
128,4,5,0,39,0,1,17,82,0,40,0,192,0,28,2,162,0,43,0,52,0,35,0,0,fist
128,4,5,0,28,0,1,20,120,212,143,35,30,2,135,30,150,6,6,246,188,6,222,255,225,0,51,255,fist
128,4,5,0,39,0,1,17,82,0,40,0,174,0,208,1,155,0,47,0,49,0,35,0,0,fist
128,4,5,0,28,0,1,20,80,212,52,35,211,1,189,30,220,6,249,245,32,7,82,0,254,1,19,0,fist
128,4,5,0,39,0,1,17,85,0,40,0,146,0,188,1,161,0,49,0,37,0,34,0,0,fist
128,4,5,0,28,0,1,20,9,212,179,34,86,1,241,30,182,6,4,246,38,7,216,0,54,3,4,1,fist
128,4,5,0,39,0,1,17,82,0,41,0,136,0,219,1,185,0,51,0,33,0,34,0,0,fist
128,4,5,0,28,0,1,20,144,211,2,34,159,0,14,31,246,5,70,246,137,7,114,1,63,4,125,2,fist
128,4,5,0,39,0,1,17,115,0,47,0,130,0,177,1,187,0,56,0,35,0,37,0,0,fist
128,4,5,0,28,0,1,20,242,210,37,33,205,255,26,31,29,6,18,247,143,7,46,2,44,5,235,3,fist
128,4,5,0,39,0,1,17,135,0,56,0,133,0,133,1,170,0,52,0,28,0,35,0,0,fist
128,4,5,0,28,0,1,20,73,210,53,32,224,254,27,31,63,6,103,247,26,7,137,2,15,6,209,4,fist
128,4,5,0,39,0,1,17,217,0,69,0,124,0,233,1,195,0,47,0,32,0,47,0,0,fist
128,4,5,0,28,0,1,20,155,209,48,31,207,253,22,31,168,6,183,247,47,7,245,2,249,6,57,5,fist
128,4,5,0,39,0,1,17,241,0,184,0,131,0,236,1,196,0,48,0,34,0,52,0,0,fist
128,4,5,0,28,0,1,20,250,208,35,30,135,252,14,31,250,5,183,247,195,6,108,2,239,7,180,5,fist
128,4,5,0,39,0,1,17,253,0,196,0,131,0,203,1,185,0,51,0,34,0,58,0,0,fist
128,4,5,0,28,0,1,20,101,208,6,29,31,251,11,31,225,5,198,247,206,6,60,2,191,8,234,5,fist
128,4,5,0,39,0,1,17,9,1,201,0,138,0,64,2,215,0,48,0,32,0,59,0,0,fist
128,4,5,0,28,0,1,20,199,207,180,27,179,249,10,31,142,5,231,247,84,6,59,3,118,9,35,6,fist
128,4,5,0,39,0,1,17,0,1,203,0,156,0,99,2,227,0,49,0,32,0,57,0,0,fist
128,4,5,0,28,0,1,20,49,207,69,26,87,248,16,31,151,5,167,248,220,5,214,3,173,9,237,5,fist
128,4,5,0,39,0,1,17,251,0,207,0,158,0,47,2,214,0,46,0,30,0,49,0,0,fist
128,4,5,0,28,0,1,20,172,206,184,24,251,246,39,31,225,4,6,249,245,5,54,4,46,10,136,5,fist
128,4,5,0,39,0,1,17,254,0,193,0,150,0,100,2,224,0,40,0,31,0,62,0,0,fist
128,4,5,0,28,0,1,20,65,206,50,23,143,245,55,31,93,4,128,249,3,6,172,3,102,10,121,5,fist
128,4,5,0,39,0,1,17,245,0,184,0,147,0,107,2,224,0,37,0,29,0,59,0,0,fist
128,4,5,0,28,0,1,20,252,205,211,21,1,244,54,31,194,3,177,249,167,5,82,2,149,10,125,5,fist
128,4,5,0,39,0,1,17,245,0,193,0,122,0,30,2,219,0,36,0,31,0,59,0,0,fist
128,4,5,0,28,0,1,20,208,205,146,20,98,242,32,31,85,3,8,250,80,5,90,1,132,10,151,5,fist
128,4,5,0,39,0,1,17,4,1,189,0,75,0,251,1,209,0,34,0,29,0,59,0,0,fist
128,4,5,0,28,0,1,20,182,205,85,19,198,240,1,31,1,3,178,249,5,5,58,1,111,10,138,5,fist
128,4,5,0,39,0,1,17,217,0,181,0,66,0,212,1,196,0,34,0,28,0,59,0,0,fist
128,4,5,0,28,0,1,20,166,205,15,18,51,239,221,30,117,2,42,250,162,4,95,1,93,10,121,5,fist
128,4,5,0,39,0,1,17,190,0,193,0,71,0,189,1,194,0,36,0,22,0,40,0,0,fist
128,4,5,0,28,0,1,20,160,205,188,16,173,237,180,30,32,2,154,250,160,4,155,1,83,10,123,5,fist
128,4,5,0,39,0,1,17,232,0,199,0,76,0,154,1,178,0,32,0,27,0,49,0,0,fist
128,4,5,0,28,0,1,20,168,205,126,15,44,236,120,30,141,1,185,250,19,4,33,1,246,9,115,5,fist
128,4,5,0,39,0,1,17,237,0,193,0,95,0,79,1,136,0,28,0,29,0,51,0,0,fist
128,4,5,0,28,0,1,20,178,205,76,14,189,234,38,30,219,0,86,251,181,3,237,0,91,9,152,5,fist
128,4,5,0,39,0,1,17,217,0,195,0,96,0,70,1,146,0,29,0,31,0,49,0,0,fist
128,4,5,0,28,0,1,20,182,205,27,13,112,233,198,29,75,0,3,251,194,3,58,1,163,8,185,5,fist
128,4,5,0,39,0,1,17,224,0,3,1,103,0,150,1,156,0,26,0,30,0,51,0,0,fist
128,4,5,0,28,0,1,20,191,205,211,11,73,232,121,29,200,255,107,251,86,3,32,2,75,8,78,5,fist
128,4,5,0,39,0,1,17,242,0,205,0,105,0,180,1,172,0,36,0,33,0,55,0,0,fist
128,4,5,0,28,0,1,20,219,205,133,10,53,231,68,29,114,255,220,251,42,3,128,2,64,8,166,4,fist
128,4,5,0,39,0,1,17,218,0,218,0,111,0,212,1,177,0,37,0,31,0,51,0,0,fist
128,4,5,0,28,0,1,20,2,206,63,9,57,230,27,29,168,254,98,252,47,3,165,2,222,7,29,4,fist
128,4,5,0,39,0,1,17,215,0,237,0,117,0,33,2,183,0,38,0,29,0,51,0,0,fist
128,4,5,0,28,0,1,20,45,206,17,8,84,229,240,28,213,253,197,252,118,3,92,2,55,7,194,3,fist
128,4,5,0,39,0,1,17,231,0,6,1,128,0,141,2,211,0,45,0,28,0,54,0,0,fist
128,4,5,0,28,0,1,20,93,206,6,7,122,228,186,28,37,253,143,252,71,3,204,1,168,6,135,3,fist
128,4,5,0,39,0,1,17,223,0,208,0,124,0,106,2,206,0,46,0,27,0,58,0,0,fist
128,4,5,0,35,0,2,6,3,4,0,0,0,0,fist
128,4,5,0,28,0,1,20,142,206,237,5,188,227,152,28,19,253,247,252,130,3,115,2,104,6,59,3,fist
128,4,5,0,39,0,1,17,237,0,211,0,120,0,46,2,176,0,37,0,25,0,55,0,0,fist
128,4,5,0,28,0,1,20,199,206,216,4,24,227,136,28,207,252,128,253,123,3,157,2,44,6,172,2,fist
128,4,5,0,39,0,1,17,28,1,221,0,114,0,38,2,182,0,37,0,25,0,53,0,0,fist
128,4,5,0,28,0,1,20,12,207,229,3,113,226,121,28,118,252,136,253,124,3,251,1,250,5,42,2,fist
128,4,5,0,39,0,1,17,21,1,196,0,86,0,237,1,168,0,36,0,25,0,48,0,0,fist
128,4,5,0,28,0,1,20,84,207,11,3,202,225,97,28,247,251,178,253,124,3,116,1,176,5,228,1,fist
128,4,5,0,39,0,1,17,9,1,168,0,75,0,93,1,117,0,28,0,26,0,46,0,0,fist
128,4,5,0,28,0,1,20,154,207,89,2,38,225,56,28,167,251,182,253,127,3,156,0,48,5,192,1,fist
128,4,5,0,39,0,1,17,25,1,166,0,98,0,129,1,114,0,31,0,27,0,43,0,0,fist
128,4,5,0,28,0,1,20,222,207,193,1,137,224,11,28,79,251,109,253,84,3,85,0,187,4,155,1,fist
128,4,5,0,39,0,1,17,13,1,187,0,93,0,9,2,139,0,32,0,29,0,49,0,0,fist
128,4,5,0,28,0,1,20,33,208,53,1,249,223,226,27,98,251,234,253,39,3,47,0,103,4,70,1,fist
128,4,5,0,39,0,1,17,231,0,159,0,93,0,12,2,143,0,30,0,30,0,47,0,0,fist
128,4,5,0,28,0,1,20,108,208,212,0,91,223,175,27,248,250,8,254,10,3,63,255,58,4,202,0,fist
128,4,5,0,39,0,1,17,215,0,165,0,117,0,54,2,151,0,34,0,32,0,48,0,0,fist
128,4,5,0,28,0,1,20,190,208,170,0,170,222,105,27,135,250,187,253,180,2,23,254,234,3,114,0,fist
128,4,5,0,39,0,1,17,212,0,161,0,162,0,90,2,167,0,35,0,34,0,53,0,0,fist
128,4,5,0,28,0,1,20,17,209,157,0,1,222,39,27,65,250,2,253,212,2,215,253,151,3,72,0,fist
128,4,5,0,39,0,1,17,186,0,183,0,150,0,91,2,169,0,33,0,34,0,48,0,0,fist
128,4,5,0,28,0,1,20,93,209,125,0,119,221,253,26,33,250,65,253,169,2,173,254,45,3,5,0,fist
128,4,5,0,39,0,1,17,160,0,175,0,153,0,36,2,154,0,35,0,32,0,41,0,0,fist
128,4,5,0,28,0,1,20,172,209,106,0,251,220,229,26,102,250,59,253,91,2,220,254,217,2,167,255,fist
128,4,5,0,39,0,1,17,136,0,172,0,154,0,31,2,141,0,35,0,34,0,47,0,0,fist
128,4,5,0,28,0,1,20,244,209,87,0,148,220,220,26,112,250,119,253,37,2,54,255,108,2,100,255,fist
128,4,5,0,39,0,1,17,205,0,172,0,140,0,14,2,132,0,31,0,30,0,45,0,0,fist
128,4,5,0,28,0,1,20,56,210,76,0,59,220,216,26,49,250,93,253,9,2,79,255,2,2,55,255,fist
128,4,5,0,39,0,1,17,209,0,180,0,106,0,255,1,118,0,30,0,27,0,37,0,0,fist
128,4,5,0,28,0,1,20,120,210,71,0,241,219,228,26,8,250,97,253,158,1,160,255,128,1,223,254,fist
128,4,5,0,39,0,1,17,225,0,195,0,124,0,7,2,124,0,28,0,26,0,44,0,0,fist
128,4,5,0,28,0,1,20,176,210,62,0,195,219,4,27,180,249,161,253,152,1,40,0,243,0,119,254,fist
128,4,5,0,39,0,1,17,225,0,174,0,130,0,202,1,116,0,26,0,25,0,45,0,0,fist
128,4,5,0,28,0,1,20,227,210,54,0,165,219,48,27,149,249,23,254,55,1,106,0,118,0,17,254,fist
128,4,5,0,39,0,1,17,217,0,179,0,131,0,191,1,113,0,26,0,22,0,43,0,0,fist
128,4,5,0,28,0,1,20,26,211,98,0,136,219,100,27,73,250,60,254,215,0,209,255,0,0,92,253,fist
128,4,5,0,39,0,1,17,181,0,176,0,128,0,136,1,110,0,27,0,24,0,50,0,0,fist
128,4,5,0,28,0,1,20,90,211,223,0,100,219,153,27,231,250,88,254,135,0,137,254,110,255,86,252,fist
128,4,5,0,39,0,1,17,178,0,198,0,108,0,84,1,109,0,25,0,24,0,52,0,0,fist
128,4,5,0,28,0,1,20,154,211,194,1,58,219,189,27,81,251,33,254,161,0,187,252,182,254,110,251,fist
128,4,5,0,39,0,1,17,162,0,151,0,91,0,21,1,104,0,26,0,23,0,47,0,0,fist
128,4,5,0,28,0,1,20,222,211,13,3,252,218,186,27,125,251,164,253,137,0,145,250,17,254,227,250,fist
128,4,5,0,39,0,1,17,175,0,151,0,88,0,92,1,117,0,26,0,25,0,48,0,0,fist
128,4,5,0,28,0,1,20,34,212,163,4,211,218,183,27,251,251,81,252,130,0,124,249,126,253,85,250,fist
128,4,5,0,39,0,1,17,175,0,141,0,92,0,83,1,112,0,25,0,24,0,48,0,0,fist
128,4,5,0,28,0,1,20,107,212,56,6,216,218,226,27,35,252,88,251,153,0,138,250,254,252,159,249,fist
128,4,5,0,39,0,1,17,154,0,140,0,101,0,145,1,119,0,27,0,26,0,42,0,0,fist
128,4,5,0,28,0,1,20,172,212,155,7,31,219,76,28,95,252,127,250,242,0,190,252,136,252,84,249,fist
128,4,5,0,39,0,1,17,140,0,85,0,97,0,171,1,111,0,27,0,26,0,42,0,0,fist
128,4,5,0,28,0,1,20,217,212,187,8,170,219,242,28,16,253,124,250,68,1,46,255,37,252,80,249,fist
128,4,5,0,39,0,1,17,128,0,88,0,99,0,217,1,121,0,32,0,28,0,43,0,0,fist
128,4,5,0,28,0,1,20,242,212,167,9,115,220,193,29,170,253,114,250,138,1,21,1,166,251,103,249,fist
128,4,5,0,39,0,1,17,118,0,92,0,95,0,195,1,142,0,32,0,29,0,49,0,0,fist
128,4,5,0,28,0,1,20,250,212,125,10,112,221,171,30,20,254,153,250,25,2,77,2,9,251,71,249,fist
128,4,5,0,39,0,1,17,110,0,89,0,104,0,235,1,159,0,36,0,28,0,46,0,0,fist
128,4,5,0,28,0,1,20,251,212,88,11,129,222,138,31,40,254,255,250,131,2,73,2,149,250,78,249,fist
128,4,5,0,39,0,1,17,90,0,75,0,108,0,3,2,176,0,35,0,24,0,42,0,0,fist
128,4,5,0,28,0,1,20,255,212,87,12,131,223,60,32,35,254,32,251,58,3,252,0,81,250,142,249,fist
128,4,5,0,39,0,1,17,107,0,80,0,108,0,2,2,182,0,36,0,26,0,50,0,0,fist
128,4,5,0,28,0,1,20,31,213,155,13,102,224,196,32,179,254,108,251,134,3,252,254,38,250,58,249,fist
128,4,5,0,39,0,1,17,177,0,118,0,115,0,227,1,179,0,40,0,28,0,57,0,0,fist
128,4,5,0,28,0,1,20,104,213,21,15,22,225,37,33,179,255,156,250,209,3,9,253,161,250,31,249,fist
128,4,5,0,39,0,1,17,174,0,113,0,113,0,207,1,154,0,41,0,26,0,51,0,0,fist
128,4,5,0,28,0,1,20,206,213,159,16,183,225,127,33,198,255,218,249,97,4,92,252,239,250,205,248,fist
128,4,5,0,39,0,1,17,173,0,112,0,122,0,191,1,139,0,40,0,28,0,57,0,0,fist
128,4,5,0,28,0,1,20,71,214,50,18,86,226,212,33,199,255,94,249,48,4,18,252,254,250,141,248,fist
128,4,5,0,39,0,1,17,198,0,115,0,122,0,167,1,115,0,40,0,29,0,79,0,0,fist
128,4,5,0,28,0,1,20,219,214,197,19,236,226,41,34,32,0,185,248,67,4,208,251,97,251,84,248,fist
128,4,5,0,39,0,1,17,52,1,113,0,130,0,168,1,117,0,45,0,33,0,181,0,0,fist
128,4,5,0,28,0,1,20,108,215,35,21,157,227,152,34,193,0,131,247,135,4,42,253,205,251,100,248,fist
128,4,5,0,39,0,1,17,65,1,72,0,126,0,171,1,121,0,38,0,34,0,185,0,0,fist
128,4,5,0,28,0,1,20,219,215,37,22,141,228,57,35,159,1,53,248,181,4,219,255,12,252,153,248,fist
128,4,5,0,39,0,1,17,72,1,129,0,159,0,177,1,131,0,36,0,35,0,189,0,0,fist
128,4,5,0,28,0,1,20,79,216,24,23,147,229,231,35,81,2,158,249,124,4,95,0,19,252,79,248,fist
128,4,5,0,39,0,1,17,79,1,133,0,150,0,165,1,131,0,35,0,34,0,191,0,0,fist
128,4,5,0,28,0,1,20,253,216,78,24,111,230,119,36,155,2,40,249,253,3,75,254,27,252,195,247,fist
128,4,5,0,39,0,1,17,80,1,140,0,157,0,185,1,144,0,36,0,36,0,189,0,0,fist
128,4,5,0,28,0,1,20,195,217,136,25,63,231,1,37,45,3,123,248,21,4,216,253,90,252,158,247,fist
128,4,5,0,39,0,1,17,244,0,138,0,158,0,192,1,139,0,28,0,31,0,99,0,0,fist
128,4,5,0,28,0,1,20,115,218,148,26,57,232,155,37,103,3,36,248,121,4,69,255,82,252,175,247,fist
128,4,5,0,39,0,1,17,180,0,137,0,159,0,198,1,130,0,27,0,28,0,86,0,0,fist
128,4,5,0,28,0,1,20,19,219,125,27,100,233,72,38,217,2,143,247,40,4,186,0,35,252,90,247,fist
128,4,5,0,39,0,1,17,213,0,100,0,136,0,215,1,126,0,31,0,26,0,83,0,0,fist
128,4,5,0,28,0,1,20,149,219,35,28,193,234,18,39,218,2,165,248,237,3,182,2,99,252,99,247,fist
128,4,5,0,39,0,1,17,210,0,94,0,132,0,231,1,131,0,32,0,26,0,76,0,0,fist
128,4,5,0,28,0,1,20,29,220,203,28,22,236,200,39,156,3,164,248,118,3,116,2,91,252,164,247,fist
128,4,5,0,39,0,1,17,209,0,154,0,162,0,236,1,131,0,34,0,25,0,66,0,0,fist
128,4,5,0,28,0,1,20,182,220,117,29,98,237,115,40,56,4,18,249,142,3,12,2,113,252,168,247,fist
128,4,5,0,39,0,1,17,211,0,155,0,158,0,249,1,137,0,34,0,24,0,68,0,0,fist
128,4,5,0,28,0,1,20,68,221,15,30,168,238,13,41,182,4,56,249,67,4,21,2,121,252,48,248,fist
128,4,5,0,39,0,1,17,220,0,156,0,152,0,244,1,132,0,33,0,24,0,76,0,0,fist
128,4,5,0,28,0,1,20,214,221,177,30,225,239,143,41,15,4,73,248,234,3,184,1,63,252,81,248,fist
128,4,5,0,39,0,1,17,179,0,149,0,145,0,233,1,124,0,30,0,23,0,72,0,0,fist
128,4,5,0,28,0,1,20,82,222,56,31,54,241,13,42,166,4,106,248,248,3,166,2,38,252,144,248,fist
128,4,5,0,39,0,1,17,173,0,153,0,144,0,234,1,130,0,30,0,23,0,75,0,0,fist
128,4,5,0,28,0,1,20,189,222,176,31,156,242,128,42,52,5,6,249,196,3,51,3,1,252,217,248,fist
128,4,5,0,39,0,1,17,142,0,80,0,89,0,179,1,111,0,23,0,20,0,69,0,0,fist
128,4,5,0,28,0,1,20,69,223,59,32,214,243,223,42,67,5,209,248,92,4,223,1,20,252,254,248,fist
128,4,5,0,39,0,1,17,125,0,82,0,85,0,119,1,99,0,24,0,22,0,59,0,0,fist
128,4,5,0,28,0,1,20,5,224,219,32,194,244,54,43,192,4,195,248,108,4,227,255,186,252,237,248,fist
128,4,5,0,39,0,1,17,151,0,117,0,83,0,70,1,91,0,26,0,22,0,46,0,0,fist
128,4,5,0,28,0,1,20,188,224,106,33,126,245,126,43,48,6,154,248,204,4,28,255,71,253,29,250,fist
128,4,5,0,39,0,1,17,149,0,164,0,80,0,128,1,106,0,25,0,25,0,45,0,0,fist
128,4,5,0,28,0,1,20,102,225,248,33,247,245,165,43,66,6,141,247,173,4,113,254,130,253,250,250,fist
128,4,5,0,39,0,1,17,187,0,173,0,75,0,138,1,100,0,24,0,24,0,40,0,0,fist
128,4,5,0,28,0,1,20,213,225,81,34,146,246,207,43,115,6,156,247,181,4,43,0,187,253,142,251,fist
128,4,5,0,39,0,1,17,237,0,179,0,91,0,190,1,121,0,31,0,25,0,43,0,0,fist
128,4,5,0,28,0,1,20,7,226,127,34,89,247,246,43,226,6,167,247,132,4,14,2,204,253,43,252,fist
128,4,5,0,39,0,1,17,241,0,181,0,151,0,218,1,127,0,34,0,24,0,41,0,0,fist
128,4,5,0,28,0,1,20,35,226,151,34,29,248,27,44,194,6,0,248,147,4,126,2,2,254,140,252,fist
128,4,5,0,39,0,1,17,217,0,159,0,159,0,240,1,132,0,33,0,23,0,38,0,0,fist
128,4,5,0,28,0,1,20,46,226,149,34,183,248,62,44,91,6,147,247,244,4,81,2,131,254,255,252,fist
128,4,5,0,39,0,1,17,214,0,105,0,162,0,175,1,119,0,33,0,22,0,34,0,0,fist
128,4,5,0,28,0,1,20,54,226,131,34,31,249,99,44,142,6,34,248,79,5,139,1,50,255,219,253,fist
128,4,5,0,39,0,1,17,174,0,81,0,159,0,196,1,132,0,33,0,22,0,31,0,0,fist
128,4,5,0,28,0,1,20,76,226,120,34,55,249,126,44,194,6,24,248,128,5,10,0,204,255,181,254,fist
128,4,5,0,39,0,1,17,102,0,66,0,195,0,235,1,125,0,30,0,23,0,28,0,0,fist
128,4,5,0,28,0,1,20,73,226,98,34,27,249,137,44,250,6,132,247,148,5,191,255,70,0,197,255,fist
128,4,5,0,39,0,1,17,84,0,57,0,155,0,18,2,122,0,32,0,22,0,26,0,0,fist
128,4,5,0,28,0,1,20,16,226,41,34,249,248,137,44,38,7,154,247,158,5,148,0,177,0,0,1,fist
128,4,5,0,39,0,1,17,75,0,49,0,148,0,3,2,121,0,31,0,23,0,25,0,0,fist
128,4,5,0,28,0,1,20,178,225,214,33,195,248,128,44,51,7,150,247,167,5,251,0,44,1,15,2,fist
128,4,5,0,39,0,1,17,71,0,48,0,141,0,5,2,123,0,31,0,21,0,25,0,0,fist
128,4,5,0,28,0,1,20,61,225,107,33,115,248,115,44,54,7,171,247,188,5,16,1,196,1,239,2,fist
128,4,5,0,39,0,1,17,89,0,49,0,142,0,196,1,96,0,31,0,21,0,28,0,0,fist
128,4,5,0,28,0,1,20,187,224,244,32,251,247,92,44,86,7,171,247,208,5,177,0,90,2,233,3,fist
128,4,5,0,39,0,1,17,105,0,43,0,71,0,54,1,72,0,28,0,21,0,32,0,0,fist
128,4,5,0,28,0,1,20,49,224,113,32,90,247,60,44,48,7,18,247,192,5,117,0,241,2,137,4,fist
128,4,5,0,39,0,1,17,103,0,33,0,63,0,228,0,76,0,23,0,20,0,32,0,0,fist
128,4,5,0,28,0,1,20,144,223,194,31,170,246,35,44,224,6,236,246,242,5,249,0,208,3,40,5,fist
128,4,5,0,39,0,1,17,102,0,34,0,70,0,24,1,72,0,24,0,21,0,32,0,0,fist
128,4,5,0,28,0,1,20,209,222,220,30,251,245,18,44,229,6,162,247,5,6,200,1,205,4,33,6,fist
128,4,5,0,39,0,1,17,104,0,56,0,71,0,15,1,71,0,24,0,21,0,34,0,0,fist
128,4,5,0,28,0,1,20,246,221,207,29,34,245,240,43,216,6,180,248,42,6,222,1,119,5,28,7,fist
128,4,5,0,39,0,1,17,143,0,142,0,81,0,13,1,76,0,24,0,21,0,38,0,0,fist
128,4,5,0,28,0,1,20,29,221,193,28,32,244,183,43,90,6,42,249,63,6,32,1,200,5,204,7,fist
128,4,5,0,39,0,1,17,173,0,160,0,80,0,22,1,74,0,25,0,22,0,42,0,0,fist
128,4,5,0,28,0,1,20,68,220,174,27,3,243,104,43,163,5,215,248,98,6,179,0,240,5,88,8,fist
128,4,5,0,39,0,1,17,219,0,178,0,105,0,105,1,145,0,31,0,25,0,55,0,0,fist
128,4,5,0,28,0,1,20,111,219,137,26,211,241,14,43,60,5,39,249,7,6,149,0,103,6,177,8,fist
128,4,5,0,39,0,1,17,221,0,180,0,112,0,95,1,146,0,32,0,26,0,56,0,0,fist
128,4,5,0,28,0,1,20,137,218,71,25,168,240,164,42,40,5,236,249,217,5,9,1,154,6,83,9,fist
128,4,5,0,39,0,1,17,222,0,178,0,112,0,95,1,150,0,33,0,28,0,60,0,0,fist
128,4,5,0,28,0,1,20,172,217,254,23,126,239,45,42,198,4,37,250,102,5,13,1,168,6,105,9,fist
128,4,5,0,39,0,1,17,197,0,122,0,103,0,107,1,157,0,32,0,27,0,56,0,0,fist
128,4,5,0,28,0,1,20,215,216,164,22,96,238,180,41,65,4,206,249,135,5,96,1,198,6,73,9,fist
128,4,5,0,39,0,1,17,158,0,100,0,103,0,119,1,167,0,35,0,27,0,49,0,0,fist
128,4,5,0,28,0,1,20,19,216,42,21,94,237,80,41,200,3,173,249,85,5,66,2,36,7,196,8,fist
128,4,5,0,39,0,1,17,209,0,74,0,82,0,30,1,107,0,28,0,23,0,45,0,0,fist
128,4,5,0,28,0,1,20,100,215,154,19,109,236,251,40,60,3,26,250,26,5,191,2,125,7,65,8,fist
128,4,5,0,39,0,1,17,216,0,143,0,71,0,32,1,110,0,30,0,22,0,49,0,0,fist
128,4,5,0,28,0,1,20,210,214,14,18,125,235,170,40,248,2,163,250,226,4,131,2,163,7,198,7,fist
128,4,5,0,39,0,1,17,227,0,143,0,71,0,71,1,117,0,29,0,21,0,43,0,0,fist
128,4,5,0,28,0,1,20,98,214,154,16,125,234,82,40,94,2,167,250,192,4,186,1,182,7,78,7,fist
128,4,5,0,39,0,1,17,225,0,143,0,74,0,85,1,110,0,28,0,21,0,45,0,0,fist
128,4,5,0,28,0,1,20,22,214,63,15,117,233,252,39,208,1,97,250,141,4,28,1,192,7,160,6,fist
128,4,5,0,39,0,1,17,237,0,143,0,70,0,71,1,101,0,26,0,21,0,47,0,0,fist
128,4,5,0,28,0,1,20,231,213,223,13,123,232,186,39,124,1,125,250,147,4,95,1,237,7,233,5,fist
128,4,5,0,39,0,1,17,141,0,139,0,104,0,59,1,98,0,26,0,20,0,35,0,0,fist
128,4,5,0,28,0,1,20,206,213,123,12,140,231,133,39,215,0,218,250,95,4,154,1,11,8,91,5,fist
128,4,5,0,39,0,1,17,209,0,63,0,182,0,46,1,95,0,27,0,24,0,33,0,0,fist
128,4,5,0,28,0,1,20,194,213,35,11,162,230,75,39,12,0,95,251,21,4,91,1,216,7,15,5,fist
128,4,5,0,39,0,1,17,206,0,60,0,209,0,255,0,77,0,26,0,23,0,33,0,0,fist
128,4,5,0,28,0,1,20,208,213,250,9,176,229,12,39,91,255,172,251,215,3,107,0,127,7,92,4,fist
128,4,5,0,39,0,1,17,217,0,66,0,222,0,226,0,77,0,29,0,24,0,34,0,0,fist
128,4,5,0,28,0,1,20,254,213,26,9,170,228,191,38,240,254,186,251,110,3,234,254,255,6,135,3,fist
128,4,5,0,39,0,1,17,212,0,66,0,244,0,211,0,73,0,29,0,25,0,37,0,0,fist
128,4,5,0,28,0,1,20,70,214,117,8,141,227,101,38,159,254,218,251,155,3,129,253,195,6,223,2,fist
128,4,5,0,39,0,1,17,209,0,62,0,231,0,9,1,108,0,29,0,25,0,39,0,0,fist
128,4,5,0,28,0,1,20,154,214,246,7,82,226,236,37,90,254,134,251,139,3,60,252,188,6,225,2,fist
128,4,5,0,39,0,1,17,173,0,79,0,181,0,24,1,114,0,27,0,25,0,49,0,0,fist
128,4,5,0,28,0,1,20,224,214,118,7,23,225,85,37,209,253,48,251,204,3,251,251,126,6,123,3,fist
128,4,5,0,39,0,1,17,161,0,82,0,158,0,28,1,123,0,30,0,24,0,48,0,0,fist
128,4,5,0,28,0,1,20,7,215,232,6,13,224,187,36,22,253,224,250,199,3,190,252,226,5,39,4,fist
128,4,5,0,39,0,1,17,157,0,77,0,149,0,80,1,130,0,27,0,24,0,50,0,0,fist
128,4,5,0,28,0,1,20,15,215,45,6,71,223,53,36,4,253,18,251,178,3,118,254,60,5,155,4,fist
128,4,5,0,39,0,1,17,150,0,76,0,131,0,104,1,131,0,27,0,22,0,46,0,0,fist
128,4,5,0,28,0,1,20,5,215,76,5,170,222,190,35,246,252,228,251,132,3,148,255,249,4,205,4,fist
128,4,5,0,39,0,1,17,150,0,77,0,132,0,70,1,109,0,28,0,23,0,46,0,0,fist
128,4,5,0,28,0,1,20,253,214,115,4,8,222,57,35,207,252,110,252,238,2,73,255,206,4,182,4,fist
128,4,5,0,39,0,1,17,110,0,70,0,131,0,81,1,102,0,26,0,18,0,37,0,0,fist
128,4,5,0,28,0,1,20,249,214,181,3,82,221,150,34,90,252,175,252,207,2,81,254,178,4,167,4,fist
128,4,5,0,39,0,1,17,117,0,70,0,124,0,120,1,90,0,23,0,18,0,39,0,0,fist
128,4,5,0,28,0,1,20,242,214,23,3,147,220,219,33,238,251,130,252,209,2,124,253,99,4,159,4,fist
128,4,5,0,39,0,1,17,110,0,75,0,158,0,87,1,77,0,23,0,19,0,37,0,0,fist
128,4,5,0,28,0,1,20,250,214,156,2,205,219,27,33,166,251,238,251,148,2,253,252,51,4,75,4,fist
128,4,5,0,39,0,1,17,116,0,75,0,142,0,166,1,90,0,24,0,19,0,38,0,0,fist
128,4,5,0,28,0,1,20,8,215,27,2,33,219,118,32,93,251,182,251,164,2,179,253,13,4,251,3,fist
128,4,5,0,39,0,1,17,118,0,74,0,147,0,181,1,86,0,22,0,19,0,38,0,0,fist
128,4,5,0,28,0,1,20,21,215,133,1,151,218,240,31,61,251,242,251,130,2,182,254,214,3,182,3,fist
128,4,5,0,39,0,1,17,111,0,63,0,140,0,151,1,86,0,24,0,21,0,35,0,0,fist
128,4,5,0,28,0,1,20,37,215,222,0,37,218,131,31,236,250,217,252,82,2,112,255,170,3,39,3,fist
128,4,5,0,39,0,1,17,103,0,57,0,160,0,108,1,84,0,25,0,24,0,35,0,0,fist
128,4,5,0,28,0,1,20,67,215,70,0,175,217,30,31,125,250,22,253,18,2,80,255,167,3,134,2,fist
128,4,5,0,39,0,1,17,104,0,157,0,120,0,102,1,83,0,27,0,24,0,37,0,0,fist
128,4,5,0,28,0,1,20,107,215,199,255,60,217,195,30,235,249,233,252,28,2,30,255,117,3,231,1,fist
128,4,5,0,39,0,1,17,102,0,161,0,131,0,96,1,90,0,26,0,25,0,39,0,0,fist
128,4,5,0,28,0,1,20,161,215,95,255,199,216,118,30,155,249,163,252,220,1,18,255,92,3,79,1,fist
128,4,5,0,39,0,1,17,98,0,169,0,150,0,129,1,102,0,32,0,26,0,41,0,0,fist
128,4,5,0,28,0,1,20,214,215,17,255,97,216,53,30,61,250,226,252,159,1,9,255,231,2,237,0,fist
128,4,5,0,39,0,1,17,90,0,169,0,154,0,185,1,119,0,35,0,27,0,38,0,0,fist
128,4,5,0,28,0,1,20,28,216,239,254,255,215,14,30,134,250,244,251,20,1,29,255,122,2,75,0,fist
128,4,5,0,39,0,1,17,87,0,169,0,132,0,215,1,131,0,38,0,26,0,38,0,0,fist
128,4,5,0,28,0,1,20,102,216,186,254,189,215,22,30,118,250,121,252,211,0,83,0,44,2,170,255,fist
128,4,5,0,39,0,1,17,69,0,83,0,132,0,216,1,132,0,37,0,24,0,38,0,0,fist
128,4,5,0,28,0,1,20,170,216,140,254,141,215,44,30,188,250,31,253,204,0,132,0,208,1,55,255,fist
128,4,5,0,39,0,1,17,62,0,83,0,120,0,151,1,119,0,36,0,24,0,37,0,0,fist
128,4,5,0,28,0,1,20,233,216,135,254,85,215,52,30,164,250,97,253,155,0,185,255,96,1,193,254,fist
128,4,5,0,39,0,1,17,62,0,68,0,101,0,113,1,115,0,31,0,22,0,36,0,0,fist
128,4,5,0,28,0,1,20,37,217,182,254,16,215,38,30,12,251,95,253,127,0,147,254,0,1,118,254,fist
128,4,5,0,39,0,1,17,60,0,65,0,101,0,67,1,94,0,25,0,20,0,34,0,0,fist
128,4,5,0,28,0,1,20,93,217,11,255,191,214,2,30,242,250,228,252,55,0,200,253,159,0,101,254,fist
128,4,5,0,39,0,1,17,60,0,62,0,99,0,42,1,87,0,22,0,19,0,32,0,0,fist
128,4,5,0,28,0,1,20,140,217,130,255,122,214,227,29,18,251,196,252,33,0,136,253,254,255,4,254,fist
128,4,5,0,39,0,1,17,77,0,67,0,108,0,59,1,94,0,23,0,19,0,30,0,0,fist
128,4,5,0,28,0,1,20,186,217,41,0,63,214,204,29,62,251,122,252,1,0,45,253,84,255,95,253,fist
128,4,5,0,39,0,1,17,75,0,55,0,109,0,45,1,97,0,26,0,18,0,25,0,0,fist
128,4,5,0,28,0,1,20,221,217,231,0,15,214,179,29,128,251,88,253,77,0,196,252,248,254,215,252,fist
128,4,5,0,39,0,1,17,75,0,54,0,94,0,53,1,95,0,28,0,21,0,26,0,0,fist
128,4,5,0,28,0,1,20,5,218,237,1,185,213,95,29,129,251,135,253,39,0,156,250,193,254,104,252,fist
128,4,5,0,39,0,1,17,75,0,56,0,88,0,23,1,100,0,35,0,30,0,30,0,0,fist
128,4,5,0,28,0,1,20,54,218,78,3,77,213,226,28,150,251,148,252,40,0,138,248,110,254,11,252,fist
128,4,5,0,39,0,1,17,75,0,57,0,89,0,28,1,104,0,36,0,30,0,31,0,0,fist
128,4,5,0,28,0,1,20,117,218,207,4,234,212,105,28,229,251,145,251,57,0,61,248,63,254,131,251,fist
128,4,5,0,39,0,1,17,62,0,44,0,69,0,66,1,103,0,37,0,36,0,33,0,0,fist
128,4,5,0,28,0,1,20,192,218,68,6,169,212,32,28,104,252,92,251,79,0,100,249,50,254,231,250,fist
128,4,5,0,39,0,1,17,71,0,51,0,72,0,66,1,108,0,40,0,41,0,41,0,0,fist
128,4,5,0,28,0,1,20,27,219,201,7,136,212,5,28,178,252,31,251,81,0,37,250,0,254,65,250,fist
128,4,5,0,39,0,1,17,84,0,59,0,75,0,87,1,103,0,41,0,42,0,48,0,0,fist
128,4,5,0,28,0,1,20,130,219,75,9,120,212,252,27,128,252,207,250,39,0,148,250,3,254,141,249,fist
128,4,5,0,39,0,1,17,87,0,60,0,88,0,91,1,100,0,39,0,41,0,48,0,0,fist
128,4,5,0,28,0,1,20,246,219,209,10,119,212,4,28,206,252,237,250,11,0,228,250,10,254,17,249,fist
128,4,5,0,39,0,1,17,89,0,60,0,90,0,112,1,100,0,38,0,41,0,48,0,0,fist
128,4,5,0,28,0,1,20,135,220,112,12,115,212,12,28,212,253,211,250,193,255,116,250,60,254,137,248,fist
128,4,5,0,39,0,1,17,91,0,63,0,106,0,85,1,101,0,37,0,40,0,47,0,0,fist
128,4,5,0,28,0,1,20,43,221,18,14,113,212,15,28,103,254,227,249,238,255,64,250,122,254,113,248,fist
128,4,5,0,39,0,1,17,82,0,63,0,120,0,109,1,98,0,34,0,36,0,41,0,0,fist
128,4,5,0,28,0,1,20,208,221,154,15,139,212,51,28,51,254,178,248,39,0,64,251,149,254,82,248,fist
128,4,5,0,39,0,1,17,68,0,59,0,123,0,72,1,96,0,36,0,34,0,31,0,0,fist
128,4,5,0,28,0,1,20,121,222,5,17,200,212,139,28,19,254,98,248,201,255,190,252,199,254,225,247,fist
128,4,5,0,39,0,1,17,63,0,55,0,109,0,75,1,98,0,32,0,29,0,26,0,0,fist
128,4,5,0,28,0,1,20,30,223,78,18,32,213,3,29,108,254,213,248,230,255,213,253,234,254,222,247,fist
128,4,5,0,39,0,1,17,60,0,51,0,107,0,47,1,92,0,33,0,28,0,26,0,0,fist
128,4,5,0,28,0,1,20,179,223,120,19,151,213,149,29,67,255,191,248,247,255,252,254,212,254,17,248,fist
128,4,5,0,39,0,1,17,42,0,44,0,90,0,14,1,88,0,32,0,26,0,21,0,0,fist
128,4,5,0,28,0,1,20,70,224,155,20,38,214,56,30,196,255,69,248,16,0,137,255,178,254,222,247,fist
128,4,5,0,39,0,1,17,47,0,34,0,72,0,24,1,104,0,32,0,24,0,27,0,0,fist
128,4,5,0,28,0,1,20,249,224,209,21,186,214,226,30,74,255,172,247,219,255,75,255,244,254,22,247,fist
128,4,5,0,39,0,1,17,46,0,27,0,67,0,36,1,104,0,26,0,23,0,28,0,0,fist
128,4,5,0,28,0,1,20,168,225,230,22,98,215,164,31,171,255,83,247,220,255,54,0,53,255,46,247,fist
128,4,5,0,39,0,1,17,47,0,29,0,67,0,30,1,100,0,28,0,25,0,29,0,0,fist
128,4,5,0,28,0,1,20,74,226,225,23,36,216,120,32,140,0,70,248,19,0,25,1,43,255,86,247,fist
128,4,5,0,39,0,1,17,49,0,31,0,63,0,50,1,103,0,30,0,27,0,28,0,0,fist
128,4,5,0,28,0,1,20,252,226,247,24,218,216,36,33,88,1,160,248,251,255,10,0,229,254,84,247,fist
128,4,5,0,39,0,1,17,48,0,30,0,63,0,73,1,111,0,30,0,24,0,28,0,0,fist
128,4,5,0,28,0,1,20,212,227,40,26,116,217,167,33,136,1,226,247,242,255,146,254,255,254,47,247,fist
128,4,5,0,39,0,1,17,35,0,27,0,61,0,32,1,91,0,28,0,23,0,20,0,0,fist
128,4,5,0,28,0,1,20,174,228,68,27,27,218,53,34,45,1,175,246,227,255,9,255,69,255,30,247,fist
128,4,5,0,39,0,1,17,33,0,26,0,57,0,41,1,92,0,29,0,22,0,18,0,0,fist
128,4,5,0,28,0,1,20,117,229,61,28,234,218,233,34,234,1,52,247,234,255,133,0,99,255,24,247,fist
128,4,5,0,39,0,1,17,31,0,27,0,57,0,39,1,96,0,29,0,18,0,16,0,0,fist
128,4,5,0,28,0,1,20,67,230,52,29,197,219,156,35,145,2,117,247,204,255,154,0,105,255,247,246,fist
128,4,5,0,39,0,1,17,29,0,26,0,57,0,5,1,93,0,27,0,16,0,20,0,0,fist
128,4,5,0,28,0,1,20,26,231,36,30,157,220,69,36,121,2,226,247,56,0,93,0,124,255,252,246,fist
128,4,5,0,39,0,1,17,57,0,27,0,60,0,232,0,79,0,27,0,19,0,25,0,0,fist
128,4,5,0,28,0,1,20,226,231,4,31,116,221,220,36,33,3,163,247,16,0,117,0,89,255,145,247,fist
128,4,5,0,39,0,1,17,59,0,31,0,61,0,26,1,95,0,31,0,19,0,27,0,0,fist
128,4,5,0,28,0,1,20,187,232,239,31,70,222,97,37,238,3,163,247,165,255,244,255,68,255,118,247,fist
128,4,5,0,39,0,1,17,60,0,31,0,62,0,0,1,111,0,33,0,19,0,27,0,0,fist
128,4,5,0,28,0,1,20,183,233,225,32,14,223,219,37,16,4,171,247,188,255,70,255,137,255,24,247,fist
128,4,5,0,39,0,1,17,86,0,39,0,83,0,117,1,135,0,34,0,22,0,32,0,0,fist
128,4,5,0,28,0,1,20,158,234,178,33,222,223,90,38,234,3,111,246,247,255,222,255,181,255,125,247,fist
128,4,5,0,39,0,1,17,92,0,46,0,102,0,156,1,133,0,33,0,23,0,32,0,0,fist
128,4,5,0,28,0,1,20,96,235,104,34,208,224,233,38,251,3,105,246,5,0,22,1,149,255,178,247,fist
128,4,5,0,39,0,1,17,93,0,53,0,122,0,185,1,150,0,39,0,28,0,35,0,0,fist
128,4,5,0,28,0,1,20,52,236,32,35,183,225,104,39,95,4,224,246,130,255,164,0,173,255,171,247,fist
128,4,5,0,39,0,1,17,183,0,77,0,183,0,97,2,186,0,48,0,41,0,56,0,0,fist
128,4,5,0,35,0,2,6,3,0,0,0,0,0,fist
128,4,5,0,28,0,1,20,254,236,201,35,136,226,210,39,150,4,209,246,162,255,82,0,172,255,85,248,fist
128,4,5,0,39,0,1,17,0,1,132,0,200,0,166,2,194,0,55,0,48,0,64,0,0,fist
128,4,5,0,28,0,1,20,138,237,94,36,90,227,38,40,44,5,197,246,141,255,4,1,11,255,139,249,fist
128,4,5,0,39,0,1,17,6,1,152,0,213,0,140,2,189,0,56,0,50,0,64,0,0,fist
128,4,5,0,28,0,1,20,21,238,245,36,52,228,116,40,2,6,225,247,56,255,64,1,237,254,33,250,fist
128,4,5,0,39,0,1,17,10,1,191,0,212,0,124,2,193,0,58,0,51,0,66,0,0,fist
128,4,5,0,28,0,1,20,209,238,150,37,224,228,166,40,71,6,24,248,33,255,177,255,59,255,25,250,fist
128,4,5,0,39,0,1,17,30,1,216,0,213,0,117,2,185,0,57,0,49,0,65,0,0,fist
128,4,5,0,28,0,1,20,144,239,27,38,86,229,199,40,157,5,167,246,168,255,147,254,148,255,54,250,fist
128,4,5,0,39,0,1,17,247,0,216,0,169,0,246,1,147,0,49,0,41,0,52,0,0,fist
128,4,5,0,28,0,1,20,12,240,126,38,211,229,235,40,28,5,184,245,194,255,176,255,109,255,159,250,fist
128,4,5,0,39,0,1,17,193,0,192,0,168,0,226,1,149,0,44,0,36,0,48,0,0,fist
128,4,5,0,28,0,1,20,82,240,214,38,87,230,7,41,249,4,178,245,128,255,145,0,11,255,69,251,fist
128,4,5,0,39,0,1,17,180,0,197,0,169,0,219,1,149,0,42,0,38,0,46,0,0,fist
128,4,5,0,28,0,1,20,103,240,27,39,193,230,15,41,206,4,64,245,129,255,205,0,198,254,64,252,fist
128,4,5,0,39,0,1,17,173,0,169,0,161,0,240,1,146,0,48,0,36,0,42,0,0,fist
128,4,5,0,28,0,1,20,54,240,63,39,41,231,26,41,140,5,175,244,106,255,241,1,181,254,165,253,fist
128,4,5,0,39,0,1,17,130,0,140,0,147,0,235,1,148,0,53,0,36,0,39,0,0,fist
128,4,5,0,28,0,1,20,226,239,73,39,118,231,31,41,112,5,173,244,171,255,11,2,198,254,179,254,fist
128,4,5,0,39,0,1,17,130,0,136,0,146,0,181,1,150,0,60,0,35,0,37,0,0,fist
128,4,5,0,28,0,1,20,107,239,56,39,147,231,16,41,113,5,68,244,219,255,192,1,203,254,28,0,fist
128,4,5,0,39,0,1,17,136,0,130,0,123,0,140,1,138,0,70,0,34,0,35,0,0,fist
128,4,5,0,28,0,1,20,211,238,20,39,134,231,236,40,222,5,223,243,233,255,143,1,190,254,151,1,fist
128,4,5,0,39,0,1,17,143,0,96,0,89,0,107,1,143,0,85,0,72,0,35,0,0,fist
128,4,5,0,28,0,1,20,66,238,238,38,70,231,172,40,19,6,133,244,191,255,153,0,203,254,204,2,fist
128,4,5,0,39,0,1,17,199,0,75,0,84,0,130,1,163,0,110,0,134,0,44,0,0,fist
128,4,5,0,28,0,1,20,174,237,203,38,207,230,66,40,44,6,153,244,200,255,112,255,117,254,14,4,fist
128,4,5,0,39,0,1,17,249,0,71,0,94,0,124,1,164,0,124,0,144,0,56,0,0,fist
128,4,5,0,28,0,1,20,236,236,140,38,64,230,201,39,91,6,148,244,10,0,160,255,72,254,168,5,fist
128,4,5,0,39,0,1,17,247,0,61,0,88,0,116,1,155,0,121,0,148,0,55,0,0,fist
128,4,5,0,28,0,1,20,254,235,54,38,174,229,71,39,113,6,73,245,205,255,133,0,71,254,212,6,fist
128,4,5,0,39,0,1,17,241,0,109,0,89,0,66,1,144,0,115,0,150,0,53,0,0,fist
128,4,5,0,28,0,1,20,3,235,204,37,5,229,183,38,45,6,210,245,185,255,101,0,108,254,168,7,fist
128,4,5,0,39,0,1,17,236,0,109,0,85,0,61,1,133,0,105,0,135,0,53,0,0,fist
128,4,5,0,28,0,1,20,241,233,70,37,74,228,27,38,221,5,215,245,204,255,142,0,140,254,151,8,fist
128,4,5,0,39,0,1,17,209,0,115,0,88,0,20,1,111,0,75,0,74,0,52,0,0,fist
128,4,5,0,28,0,1,20,198,232,160,36,135,227,122,37,190,5,201,245,231,255,235,0,177,254,101,9,fist
128,4,5,0,39,0,1,17,150,0,109,0,82,0,254,0,99,0,42,0,51,0,40,0,0,fist
128,4,5,0,28,0,1,20,143,231,228,35,195,226,209,36,69,5,222,245,252,255,45,1,202,254,228,9,fist
128,4,5,0,39,0,1,17,142,0,108,0,77,0,255,0,95,0,36,0,36,0,38,0,0,fist
128,4,5,0,28,0,1,20,62,230,9,35,13,226,43,36,41,5,89,246,24,0,239,1,215,254,100,10,fist
128,4,5,0,39,0,1,17,184,0,66,0,75,0,246,0,102,0,34,0,30,0,43,0,0,fist
128,4,5,0,28,0,1,20,221,228,21,34,96,225,127,35,16,5,233,246,224,255,121,2,215,254,230,10,fist
128,4,5,0,39,0,1,17,185,0,62,0,70,0,6,1,91,0,30,0,30,0,42,0,0,fist
128,4,5,0,28,0,1,20,131,227,22,33,180,224,201,34,213,4,186,247,255,255,99,2,242,254,14,11,fist
128,4,5,0,39,0,1,17,173,0,51,0,71,0,11,1,87,0,30,0,33,0,44,0,0,fist
128,4,5,0,28,0,1,20,59,226,21,32,251,223,253,33,122,4,164,247,198,255,217,1,11,255,65,11,fist
128,4,5,0,39,0,1,17,179,0,69,0,80,0,56,1,96,0,29,0,34,0,50,0,0,fist
128,4,5,0,28,0,1,20,9,225,19,31,60,223,35,33,216,3,31,248,25,0,95,1,46,255,49,11,fist
128,4,5,0,39,0,1,17,180,0,67,0,87,0,79,1,109,0,30,0,33,0,51,0,0,fist
128,4,5,0,28,0,1,20,237,223,18,30,121,222,60,32,87,3,39,248,250,255,242,0,93,255,28,11,fist
128,4,5,0,39,0,1,17,107,0,61,0,88,0,82,1,101,0,29,0,30,0,46,0,0,fist
128,4,5,0,28,0,1,20,226,222,17,29,185,221,76,31,189,2,237,247,43,0,178,0,103,255,249,10,fist
128,4,5,0,39,0,1,17,100,0,61,0,91,0,93,1,94,0,29,0,30,0,46,0,0,fist
128,4,5,0,28,0,1,20,218,221,2,28,8,221,96,30,20,2,150,248,26,0,5,1,121,255,223,10,fist
128,4,5,0,39,0,1,17,84,0,61,0,99,0,112,1,114,0,34,0,27,0,35,0,0,fist
128,4,5,0,28,0,1,20,226,220,248,26,89,220,101,29,173,1,199,248,2,0,177,0,113,255,202,10,fist
128,4,5,0,39,0,1,17,91,0,42,0,81,0,113,1,108,0,32,0,26,0,36,0,0,fist
128,4,5,0,28,0,1,20,247,219,237,25,179,219,107,28,17,1,50,249,69,0,166,0,133,255,135,10,fist
128,4,5,0,39,0,1,17,89,0,44,0,84,0,91,1,98,0,32,0,27,0,34,0,0,fist
128,4,5,0,28,0,1,20,23,219,219,24,21,219,113,27,118,0,126,249,98,0,177,0,160,255,106,10,fist
128,4,5,0,39,0,1,17,85,0,49,0,91,0,106,1,98,0,31,0,26,0,35,0,0,fist
128,4,5,0,28,0,1,20,58,218,196,23,129,218,110,26,233,255,183,249,141,0,179,0,136,255,108,10,fist
128,4,5,0,39,0,1,17,85,0,52,0,108,0,106,1,110,0,34,0,28,0,34,0,0,fist
128,4,5,0,28,0,1,20,105,217,181,22,248,217,101,25,21,255,200,248,135,0,140,0,106,255,52,10,fist
128,4,5,0,39,0,1,17,84,0,48,0,101,0,131,1,91,0,30,0,26,0,34,0,0,fist
128,4,5,0,28,0,1,20,145,216,122,21,145,217,140,24,50,254,239,248,202,0,14,2,158,255,223,9,fist
128,4,5,0,39,0,1,17,46,0,46,0,114,0,128,1,95,0,35,0,28,0,30,0,0,fist
128,4,5,0,28,0,1,20,171,215,253,19,77,217,236,23,68,254,216,249,11,1,28,4,249,255,212,9,fist
128,4,5,0,39,0,1,17,41,0,44,0,110,0,192,1,102,0,35,0,27,0,31,0,0,fist
128,4,5,0,28,0,1,20,228,214,138,18,13,217,90,23,89,254,135,250,223,0,251,3,82,0,55,9,fist
128,4,5,0,39,0,1,17,66,0,42,0,111,0,201,1,112,0,37,0,27,0,32,0,0,fist
128,4,5,0,28,0,1,20,78,214,78,17,188,216,185,22,155,253,37,250,224,0,148,2,178,0,101,8,fist
128,4,5,0,39,0,1,17,126,0,46,0,103,0,192,1,108,0,38,0,28,0,40,0,0,fist
128,4,5,0,28,0,1,20,197,213,5,16,112,216,39,22,13,253,55,250,48,1,231,2,250,0,55,8,fist
128,4,5,0,39,0,1,17,141,0,50,0,110,0,159,1,111,0,37,0,29,0,42,0,0,fist
128,4,5,0,28,0,1,20,72,213,179,14,40,216,161,21,243,252,235,250,255,0,51,3,56,1,255,7,fist
128,4,5,0,39,0,1,17,156,0,54,0,110,0,173,1,112,0,34,0,26,0,41,0,0,fist
128,4,5,0,28,0,1,20,234,212,139,13,217,215,20,21,114,252,90,251,224,0,71,2,95,1,70,7,fist
128,4,5,0,39,0,1,17,158,0,54,0,107,0,117,1,102,0,34,0,28,0,41,0,0,fist
128,4,5,0,28,0,1,20,165,212,120,12,128,215,131,20,18,252,59,252,218,0,184,1,179,1,218,6,fist
128,4,5,0,39,0,1,17,152,0,52,0,105,0,139,1,96,0,31,0,29,0,44,0,0,fist
128,4,5,0,28,0,1,20,115,212,152,11,25,215,206,19,232,251,173,252,178,0,75,0,161,1,140,6,fist
128,4,5,0,39,0,1,17,178,0,51,0,97,0,244,1,102,0,28,0,28,0,42,0,0,fist
128,4,5,0,28,0,1,20,80,212,242,10,164,214,230,18,115,251,20,253,91,0,163,254,86,1,47,6,fist
128,4,5,0,39,0,1,17,170,0,49,0,99,0,247,1,95,0,26,0,26,0,39,0,0,fist
128,4,5,0,28,0,1,20,50,212,113,10,54,214,241,17,50,251,243,252,90,0,230,253,12,1,221,5,fist
128,4,5,0,39,0,1,17,158,0,46,0,100,0,36,2,108,0,28,0,26,0,37,0,0,fist
128,4,5,0,28,0,1,20,35,212,10,10,204,213,11,17,231,250,27,253,52,0,183,253,14,1,25,5,fist
128,4,5,0,39,0,1,17,163,0,50,0,104,0,39,2,109,0,28,0,27,0,42,0,0,fist
128,4,5,0,28,0,1,20,32,212,185,9,105,213,53,16,146,250,95,253,49,0,156,253,10,1,79,4,fist
128,4,5,0,39,0,1,17,170,0,59,0,104,0,54,2,109,0,29,0,26,0,38,0,0,fist
128,4,5,0,28,0,1,20,30,212,119,9,19,213,112,15,86,250,136,253,248,255,191,253,199,0,186,3,fist
128,4,5,0,39,0,1,17,101,0,61,0,107,0,38,2,107,0,28,0,26,0,35,0,0,fist
128,4,5,0,28,0,1,20,24,212,74,9,205,212,179,14,27,250,134,253,235,255,162,253,103,0,69,3,fist
128,4,5,0,39,0,1,17,108,0,65,0,98,0,50,2,109,0,29,0,27,0,36,0,0,fist
128,4,5,0,28,0,1,20,12,212,33,9,155,212,16,14,244,249,136,253,240,255,19,254,24,0,207,2,fist
128,4,5,0,39,0,1,17,107,0,63,0,87,0,241,1,87,0,27,0,28,0,37,0,0,fist
128,4,5,0,28,0,1,20,250,211,246,8,122,212,141,13,208,249,177,253,210,255,174,254,211,255,68,2,fist
128,4,5,0,39,0,1,17,108,0,65,0,86,0,239,1,86,0,27,0,26,0,34,0,0,fist
128,4,5,0,28,0,1,20,231,211,209,8,102,212,39,13,229,249,239,253,226,255,21,255,177,255,170,1,fist
128,4,5,0,39,0,1,17,94,0,56,0,91,0,191,1,79,0,24,0,24,0,32,0,0,fist
128,4,5,0,28,0,1,20,207,211,184,8,98,212,214,12,199,249,10,254,249,255,69,255,113,255,20,1,fist
128,4,5,0,39,0,1,17,91,0,53,0,83,0,173,1,74,0,25,0,24,0,30,0,0,fist
128,4,5,0,28,0,1,20,174,211,169,8,110,212,152,12,91,249,8,254,17,0,122,255,30,255,144,0,fist
128,4,5,0,39,0,1,17,115,0,49,0,82,0,167,1,76,0,24,0,26,0,40,0,0,fist
128,4,5,0,28,0,1,20,137,211,158,8,132,212,105,12,103,249,96,254,19,0,175,255,229,254,36,0,fist
128,4,5,0,39,0,1,17,125,0,50,0,75,0,153,1,76,0,24,0,27,0,40,0,0,fist
128,4,5,0,28,0,1,20,106,211,180,8,158,212,71,12,213,249,125,254,233,255,109,255,195,254,120,255,fist
128,4,5,0,39,0,1,17,116,0,43,0,78,0,180,1,79,0,24,0,25,0,37,0,0,fist
128,4,5,0,28,0,1,20,90,211,254,8,186,212,56,12,43,250,149,254,232,255,222,254,200,254,90,254,fist
128,4,5,0,39,0,1,17,116,0,41,0,70,0,203,1,81,0,23,0,24,0,37,0,0,fist
128,4,5,0,28,0,1,20,88,211,126,9,215,212,56,12,46,250,91,254,249,255,57,254,214,254,86,253,fist
128,4,5,0,39,0,1,17,115,0,36,0,102,0,166,1,85,0,25,0,25,0,40,0,0,fist
128,4,5,0,28,0,1,20,93,211,37,10,253,212,74,12,43,250,254,253,37,0,228,253,198,254,141,252,fist
128,4,5,0,39,0,1,17,94,0,42,0,104,0,134,1,84,0,25,0,20,0,32,0,0,fist
128,4,5,0,28,0,1,20,100,211,214,10,47,213,125,12,157,250,201,253,19,0,67,254,169,254,3,252,fist
128,4,5,0,39,0,1,17,79,0,39,0,105,0,154,1,84,0,25,0,19,0,29,0,0,fist
128,4,5,0,28,0,1,20,113,211,160,11,114,213,214,12,49,251,126,253,25,0,130,254,137,254,49,251,fist
128,4,5,0,39,0,1,17,75,0,39,0,101,0,124,1,83,0,24,0,21,0,30,0,0,fist
128,4,5,0,28,0,1,20,130,211,123,12,199,213,87,13,108,251,11,253,45,0,222,254,119,254,106,250,fist
128,4,5,0,39,0,1,17,73,0,43,0,98,0,124,1,86,0,25,0,23,0,30,0,0,fist
128,4,5,0,28,0,1,20,142,211,85,13,50,214,252,13,142,251,117,252,80,0,134,255,60,254,8,250,fist
128,4,5,0,39,0,1,17,69,0,45,0,83,0,127,1,83,0,23,0,25,0,34,0,0,fist
128,4,5,0,28,0,1,20,147,211,39,14,183,214,195,14,160,251,108,252,50,0,71,0,244,253,92,249,fist
128,4,5,0,39,0,1,17,36,0,35,0,84,0,117,1,80,0,22,0,26,0,31,0,0,fist
128,4,5,0,28,0,1,20,159,211,24,15,73,215,138,15,114,252,147,252,68,0,215,255,174,253,224,248,fist
128,4,5,0,39,0,1,17,66,0,43,0,89,0,109,1,83,0,25,0,29,0,34,0,0,fist
128,4,5,0,28,0,1,20,186,211,40,16,225,215,73,16,156,252,176,251,130,0,55,255,158,253,130,248,fist
128,4,5,0,39,0,1,17,67,0,50,0,115,0,125,1,90,0,24,0,29,0,34,0,0,fist
128,4,5,0,28,0,1,20,219,211,79,17,140,216,17,17,250,252,150,250,171,0,13,255,93,253,11,248,fist
128,4,5,0,39,0,1,17,71,0,46,0,114,0,134,1,86,0,25,0,27,0,34,0,0,fist
128,4,5,0,28,0,1,20,8,212,121,18,66,217,233,17,108,253,142,250,160,0,55,255,107,253,159,247,fist
128,4,5,0,39,0,1,17,74,0,49,0,102,0,94,1,75,0,27,0,26,0,32,0,0,fist
128,4,5,0,28,0,1,20,67,212,170,19,252,217,191,18,138,253,90,250,234,0,254,254,131,253,109,247,fist
128,4,5,0,39,0,1,17,75,0,50,0,109,0,100,1,77,0,27,0,26,0,32,0,0,fist
128,4,5,0,28,0,1,20,140,212,230,20,190,218,145,19,232,253,113,249,194,0,200,254,118,253,72,247,fist
128,4,5,0,39,0,1,17,51,0,45,0,104,0,133,1,75,0,25,0,22,0,27,0,0,fist
128,4,5,0,28,0,1,20,214,212,21,22,146,219,115,20,65,254,64,249,11,1,61,255,114,253,23,247,fist
128,4,5,0,39,0,1,17,68,0,42,0,80,0,108,1,64,0,27,0,25,0,31,0,0,fist
128,4,5,0,28,0,1,20,36,213,52,23,114,220,94,21,217,254,162,249,245,0,170,255,122,253,3,247,fist
128,4,5,0,39,0,1,17,69,0,44,0,81,0,63,1,61,0,26,0,25,0,32,0,0,fist
128,4,5,0,28,0,1,20,133,213,96,24,85,221,67,22,33,255,223,248,209,0,77,255,129,253,217,246,fist
128,4,5,0,39,0,1,17,66,0,38,0,82,0,80,1,69,0,23,0,23,0,27,0,0,fist
128,4,5,0,28,0,1,20,232,213,130,25,75,222,47,23,8,255,44,248,205,0,169,255,103,253,164,246,fist
128,4,5,0,39,0,1,17,65,0,38,0,69,0,75,1,74,0,25,0,22,0,27,0,0,fist
128,4,5,0,28,0,1,20,87,214,158,26,85,223,47,24,226,255,77,248,130,0,19,0,113,253,52,246,fist
128,4,5,0,39,0,1,17,64,0,37,0,70,0,31,1,72,0,25,0,22,0,28,0,0,fist
128,4,5,0,28,0,1,20,221,214,198,27,101,224,43,25,194,0,206,248,94,0,182,255,127,253,232,245,fist
128,4,5,0,39,0,1,17,43,0,27,0,62,0,33,1,80,0,24,0,21,0,24,0,0,fist
128,4,5,0,28,0,1,20,90,215,225,28,132,225,23,26,71,1,240,247,225,0,228,255,43,253,64,246,fist
128,4,5,0,39,0,1,17,34,0,26,0,66,0,20,1,81,0,26,0,20,0,20,0,0,fist
128,4,5,0,28,0,1,20,194,215,225,29,192,226,253,26,109,1,233,246,234,0,176,0,183,252,129,246,fist
128,4,5,0,39,0,1,17,32,0,30,0,89,0,16,1,82,0,28,0,21,0,21,0,0,fist
128,4,5,0,28,0,1,20,43,216,209,30,0,228,218,27,109,1,65,248,163,0,222,0,189,252,164,246,fist
128,4,5,0,39,0,1,17,23,0,30,0,108,0,42,1,83,0,25,0,21,0,20,0,0,fist
128,4,5,0,28,0,1,20,191,216,232,31,27,229,136,28,223,1,172,248,13,0,32,255,199,252,228,246,fist
128,4,5,0,39,0,1,17,38,0,30,0,105,0,82,1,101,0,28,0,25,0,29,0,0,fist
128,4,5,0,28,0,1,20,142,217,51,33,39,230,30,29,202,2,166,247,45,0,109,253,199,252,102,246,fist
128,4,5,0,39,0,1,17,40,0,35,0,111,0,96,1,101,0,29,0,25,0,31,0,0,fist
128,4,5,0,28,0,1,20,114,218,117,34,48,231,182,29,25,3,252,246,212,0,51,253,21,253,63,246,fist
128,4,5,0,39,0,1,17,44,0,34,0,106,0,107,1,100,0,30,0,27,0,33,0,0,fist
128,4,5,0,28,0,1,20,81,219,151,35,54,232,75,30,53,3,219,246,40,1,140,253,96,253,150,246,fist
128,4,5,0,39,0,1,17,44,0,33,0,88,0,79,1,92,0,29,0,27,0,32,0,0,fist
128,4,5,0,28,0,1,20,59,220,181,36,66,233,219,30,237,3,167,246,169,0,135,253,95,253,133,246,fist
128,4,5,0,39,0,1,17,46,0,32,0,69,0,57,1,106,0,31,0,27,0,33,0,0,fist
128,4,5,0,28,0,1,20,44,221,193,37,79,234,106,31,63,4,211,246,150,0,169,253,147,253,143,246,fist
128,4,5,0,39,0,1,17,36,0,32,0,78,0,73,1,95,0,30,0,25,0,25,0,0,fist
128,4,5,0,28,0,1,20,8,222,175,38,91,235,239,31,40,4,237,246,212,0,39,254,157,253,12,247,fist
128,4,5,0,39,0,1,17,35,0,30,0,81,0,110,1,105,0,30,0,23,0,22,0,0,fist
128,4,5,0,28,0,1,20,212,222,133,39,99,236,100,32,106,4,157,246,125,0,133,254,152,253,153,247,fist
128,4,5,0,39,0,1,17,49,0,34,0,82,0,131,1,109,0,28,0,21,0,23,0,0,fist
128,4,5,0,28,0,1,20,160,223,75,40,109,237,218,32,251,4,211,246,108,0,190,254,195,253,174,247,fist
128,4,5,0,39,0,1,17,104,0,42,0,86,0,145,1,112,0,28,0,24,0,25,0,0,fist
128,4,5,0,28,0,1,20,82,224,235,40,139,238,94,33,124,5,110,247,242,0,191,255,247,253,209,247,fist
128,4,5,0,39,0,1,17,238,0,59,0,112,0,142,1,100,0,31,0,27,0,36,0,0,fist
128,4,5,0,28,0,1,20,210,224,99,41,179,239,216,33,72,5,63,247,59,1,231,0,217,253,123,248,fist
128,4,5,0,39,0,1,17,250,0,96,0,177,0,105,1,112,0,41,0,31,0,38,0,0,fist
128,4,5,0,28,0,1,20,66,225,225,41,237,240,52,34,77,5,129,247,128,0,47,1,29,253,169,248,fist
128,4,5,0,39,0,1,17,17,1,103,0,191,0,107,1,117,0,43,0,34,0,43,0,0,fist
128,4,5,0,28,0,1,20,166,225,73,42,74,242,159,34,3,7,80,247,252,255,35,2,51,253,103,248,fist
128,4,5,0,39,0,1,17,24,1,101,0,195,0,105,1,119,0,44,0,36,0,45,0,0,fist
128,4,5,0,28,0,1,20,10,226,142,42,179,243,40,35,27,7,230,247,7,0,206,2,237,253,14,248,fist
128,4,5,0,39,0,1,17,60,1,102,0,195,0,108,1,146,0,48,0,39,0,51,0,0,fist
128,4,5,0,28,0,1,20,134,226,218,42,206,244,146,35,77,6,78,247,88,0,69,1,66,254,254,248,fist
128,4,5,0,39,0,1,17,252,0,102,0,191,0,131,1,144,0,46,0,38,0,50,0,0,fist
128,4,5,0,28,0,1,20,248,226,34,43,173,245,220,35,204,6,200,245,166,0,139,0,84,254,222,249,fist
128,4,5,0,39,0,1,17,4,1,77,0,138,0,217,1,148,0,43,0,34,0,49,0,0,fist
128,4,5,0,28,0,1,20,45,227,65,43,97,246,20,36,22,6,214,245,24,1,17,1,160,254,29,251,fist
128,4,5,0,39,0,1,17,240,0,68,0,117,0,212,1,141,0,44,0,32,0,48,0,0,fist
128,4,5,0,28,0,1,20,49,227,79,43,207,246,35,36,224,5,117,245,42,1,249,0,176,254,240,252,fist
128,4,5,0,39,0,1,17,234,0,69,0,119,0,227,1,149,0,49,0,33,0,47,0,0,fist
128,4,5,0,28,0,1,20,14,227,86,43,17,247,14,36,78,6,203,244,255,0,10,1,166,254,90,254,fist
128,4,5,0,39,0,1,17,167,0,68,0,123,0,29,2,133,0,49,0,28,0,41,0,0,fist
128,4,5,0,28,0,1,20,197,226,61,43,61,247,253,35,77,6,59,245,109,1,126,1,18,255,98,255,fist
128,4,5,0,39,0,1,17,225,0,58,0,107,0,26,2,133,0,50,0,27,0,40,0,0,fist
128,4,5,0,28,0,1,20,109,226,16,43,33,247,228,35,4,6,115,245,225,1,220,0,191,255,206,0,fist
128,4,5,0,39,0,1,17,215,0,55,0,115,0,215,1,127,0,45,0,27,0,42,0,0,fist
128,4,5,0,28,0,1,20,15,226,225,42,185,246,180,35,98,6,175,244,212,1,3,0,56,0,64,2,fist
128,4,5,0,39,0,1,17,216,0,57,0,117,0,222,1,132,0,43,0,25,0,40,0,0,fist
128,4,5,0,28,0,1,20,141,225,148,42,50,246,126,35,63,6,189,244,187,1,134,0,195,0,111,3,fist
128,4,5,0,39,0,1,17,223,0,58,0,113,0,204,1,132,0,37,0,21,0,38,0,0,fist
128,4,5,0,28,0,1,20,233,224,44,42,145,245,62,35,67,6,246,244,157,1,8,1,56,1,180,4,fist
128,4,5,0,39,0,1,17,223,0,56,0,113,0,125,1,122,0,33,0,20,0,38,0,0,fist
128,4,5,0,28,0,1,20,49,224,176,41,209,244,242,34,36,6,9,245,156,1,52,1,156,1,210,5,fist
128,4,5,0,39,0,1,17,136,0,49,0,110,0,108,1,118,0,31,0,17,0,30,0,0,fist
128,4,5,0,28,0,1,20,105,223,39,41,249,243,148,34,75,6,92,245,118,1,98,1,222,1,0,7,fist
128,4,5,0,39,0,1,17,126,0,42,0,93,0,94,1,102,0,29,0,17,0,27,0,0,fist
128,4,5,0,28,0,1,20,143,222,141,40,5,243,33,34,62,6,242,245,62,1,108,1,11,2,13,8,fist
128,4,5,0,39,0,1,17,131,0,39,0,80,0,27,1,91,0,28,0,17,0,30,0,0,fist
128,4,5,0,28,0,1,20,175,221,233,39,248,241,153,33,115,6,55,246,2,1,72,1,40,2,212,8,fist
128,4,5,0,39,0,1,17,112,0,36,0,72,0,4,1,70,0,24,0,19,0,31,0,0,fist
128,4,5,0,28,0,1,20,206,220,50,39,226,240,14,33,112,6,34,246,232,0,106,1,118,2,45,9,fist
128,4,5,0,39,0,1,17,111,0,34,0,56,0,237,0,64,0,23,0,20,0,32,0,0,fist
128,4,5,0,28,0,1,20,223,219,96,38,208,239,127,32,243,5,83,246,216,0,253,1,151,2,128,9,fist
128,4,5,0,39,0,1,17,106,0,38,0,76,0,30,1,84,0,23,0,22,0,31,0,0,fist
128,4,5,0,28,0,1,20,221,218,115,37,203,238,234,31,226,5,76,246,202,0,179,2,148,2,213,9,fist
128,4,5,0,39,0,1,17,97,0,35,0,73,0,32,1,86,0,24,0,23,0,31,0,0,fist
128,4,5,0,28,0,1,20,211,217,107,36,210,237,85,31,142,5,6,247,197,0,81,3,178,2,252,9,fist
128,4,5,0,39,0,1,17,101,0,34,0,75,0,33,1,87,0,28,0,25,0,31,0,0,fist
128,4,5,0,28,0,1,20,210,216,93,35,208,236,178,30,82,5,7,247,218,0,17,3,196,2,64,10,fist
128,4,5,0,39,0,1,17,108,0,40,0,77,0,75,1,89,0,30,0,25,0,33,0,0,fist
128,4,5,0,28,0,1,20,216,215,66,34,205,235,8,30,154,4,44,247,24,1,26,3,221,2,96,10,fist
128,4,5,0,39,0,1,17,100,0,42,0,91,0,175,1,112,0,32,0,27,0,30,0,0,fist
128,4,5,0,28,0,1,20,230,214,30,33,196,234,79,29,52,4,83,247,50,1,249,2,234,2,160,10,fist
128,4,5,0,39,0,1,17,101,0,40,0,78,0,160,1,98,0,32,0,28,0,30,0,0,fist
128,4,5,0,28,0,1,20,255,213,243,31,193,233,146,28,197,3,144,247,51,1,253,2,244,2,145,10,fist
128,4,5,0,39,0,1,17,99,0,43,0,91,0,204,1,118,0,34,0,28,0,29,0,0,fist
128,4,5,0,28,0,1,20,37,213,194,30,188,232,202,27,73,3,49,248,66,1,211,2,2,3,172,10,fist
128,4,5,0,39,0,1,17,89,0,43,0,91,0,231,1,115,0,31,0,27,0,28,0,0,fist
128,4,5,0,28,0,1,20,100,212,159,29,175,231,240,26,204,2,103,248,111,1,28,2,4,3,163,10,fist
128,4,5,0,39,0,1,17,88,0,46,0,108,0,112,2,153,0,38,0,31,0,26,0,0,fist
128,4,5,0,28,0,1,20,198,211,142,28,154,230,17,26,37,2,40,248,88,1,101,1,46,3,81,10,fist
128,4,5,0,39,0,1,17,90,0,43,0,101,0,132,2,146,0,37,0,30,0,28,0,0,fist
128,4,5,0,28,0,1,20,37,211,101,27,149,229,56,25,103,1,165,248,186,1,234,1,46,3,65,10,fist
128,4,5,0,39,0,1,17,113,0,45,0,104,0,170,2,153,0,37,0,30,0,30,0,0,fist
128,4,5,0,28,0,1,20,142,210,55,26,154,228,90,24,13,1,244,248,122,1,248,1,30,3,49,10,fist
128,4,5,0,39,0,1,17,185,0,48,0,98,0,173,2,154,0,39,0,29,0,34,0,0,fist
128,4,5,0,28,0,1,20,19,210,28,25,164,227,127,23,153,0,193,248,141,1,133,1,38,3,173,9,fist
128,4,5,0,39,0,1,17,183,0,50,0,100,0,215,2,162,0,39,0,30,0,32,0,0,fist
128,4,5,0,28,0,1,20,148,209,231,23,194,226,177,22,188,255,99,249,177,1,51,2,32,3,131,9,fist
128,4,5,0,39,0,1,17,184,0,47,0,91,0,91,2,130,0,33,0,30,0,33,0,0,fist
128,4,5,0,28,0,1,20,28,209,169,22,233,225,224,21,99,255,239,249,148,1,80,2,16,3,127,9,fist
128,4,5,0,39,0,1,17,188,0,48,0,93,0,45,2,138,0,35,0,29,0,31,0,0,fist
128,4,5,0,28,0,1,20,183,208,128,21,22,225,9,21,10,255,6,250,147,1,214,1,247,2,43,9,fist
128,4,5,0,39,0,1,17,245,0,60,0,105,0,249,1,133,0,34,0,28,0,35,0,0,fist
128,4,5,0,28,0,1,20,95,208,90,20,79,224,59,20,95,254,53,250,136,1,219,1,235,2,197,8,fist
128,4,5,0,39,0,1,17,201,0,58,0,107,0,113,2,145,0,32,0,28,0,33,0,0,fist
128,4,5,0,28,0,1,20,18,208,47,19,147,223,124,19,1,254,215,250,150,1,24,2,1,3,94,8,fist
128,4,5,0,39,0,1,17,197,0,59,0,118,0,71,2,142,0,33,0,26,0,31,0,0,fist
128,4,5,0,28,0,1,20,215,207,30,18,223,222,189,18,178,253,86,251,110,1,152,1,228,2,228,7,fist
128,4,5,0,39,0,1,17,194,0,54,0,112,0,149,2,148,0,30,0,21,0,30,0,0,fist
128,4,5,0,28,0,1,20,173,207,43,17,51,222,253,17,60,253,243,251,121,1,4,1,187,2,87,7,fist
128,4,5,0,39,0,1,17,198,0,58,0,111,0,119,2,149,0,27,0,24,0,34,0,0,fist
128,4,5,0,28,0,1,20,140,207,76,16,138,221,49,17,166,252,41,252,126,1,124,0,149,2,40,7,fist
128,4,5,0,39,0,1,17,126,0,46,0,98,0,141,2,148,0,26,0,23,0,29,0,0,fist
128,4,5,0,28,0,1,20,114,207,132,15,235,220,91,16,64,252,68,252,94,1,6,0,76,2,251,6,fist
128,4,5,0,39,0,1,17,118,0,43,0,96,0,29,2,126,0,27,0,23,0,28,0,0,fist
128,4,5,0,28,0,1,20,96,207,217,14,90,220,133,15,215,251,80,252,91,1,149,255,253,1,123,6,fist
128,4,5,0,39,0,1,17,112,0,42,0,96,0,17,2,116,0,23,0,23,0,27,0,0,fist
128,4,5,0,28,0,1,20,82,207,58,14,212,219,176,14,129,251,146,252,49,1,128,255,170,1,42,6,fist
128,4,5,0,39,0,1,17,107,0,42,0,104,0,199,1,103,0,25,0,23,0,27,0,0,fist
128,4,5,0,28,0,1,20,69,207,169,13,90,219,219,13,96,251,228,252,42,1,77,255,109,1,218,5,fist
128,4,5,0,39,0,1,17,88,0,38,0,106,0,0,2,91,0,26,0,20,0,23,0,0,fist
128,4,5,0,28,0,1,20,53,207,45,13,244,218,5,13,237,250,188,252,112,1,250,254,10,1,148,5,fist
128,4,5,0,39,0,1,17,43,0,38,0,109,0,236,1,93,0,28,0,24,0,29,0,0,fist
128,4,5,0,28,0,1,20,36,207,174,12,159,218,71,12,61,250,57,252,111,1,127,255,201,0,65,5,fist
128,4,5,0,39,0,1,17,37,0,41,0,110,0,234,1,94,0,25,0,23,0,28,0,0,fist
128,4,5,0,28,0,1,20,1,207,1,12,94,218,162,11,7,250,129,252,131,1,179,0,142,0,89,5,fist
128,4,5,0,39,0,1,17,51,0,39,0,97,0,228,1,96,0,28,0,26,0,31,0,0,fist
128,4,5,0,28,0,1,20,221,206,62,11,40,218,26,11,10,250,52,253,108,1,113,1,138,0,228,4,fist
128,4,5,0,39,0,1,17,80,0,54,0,107,0,9,2,106,0,32,0,26,0,35,0,0,fist
128,4,5,0,28,0,1,20,195,206,153,10,247,217,158,10,70,250,170,253,45,1,24,1,113,0,41,4,fist
128,4,5,0,39,0,1,17,84,0,58,0,105,0,26,2,113,0,31,0,25,0,37,0,0,fist
128,4,5,0,28,0,1,20,178,206,31,10,198,217,19,10,2,250,60,254,50,1,20,0,84,0,149,3,fist
128,4,5,0,39,0,1,17,84,0,58,0,106,0,14,2,111,0,32,0,25,0,32,0,0,fist
128,4,5,0,28,0,1,20,178,206,246,9,143,217,102,9,209,249,76,254,251,0,58,254,44,0,14,3,fist
128,4,5,0,39,0,1,17,85,0,55,0,104,0,66,2,112,0,35,0,26,0,32,0,0,fist
128,4,5,0,28,0,1,20,193,206,18,10,87,217,171,8,183,249,55,254,224,0,222,252,17,0,103,2,fist
128,4,5,0,39,0,1,17,79,0,54,0,105,0,133,2,126,0,34,0,22,0,31,0,0,fist
128,4,5,0,28,0,1,20,212,206,77,10,40,217,249,7,159,249,54,254,217,0,122,252,238,255,206,1,fist
128,4,5,0,39,0,1,17,79,0,42,0,89,0,95,2,126,0,31,0,24,0,28,0,0,fist
128,4,5,0,28,0,1,20,230,206,164,10,9,217,87,7,164,249,10,254,203,0,74,252,155,255,52,1,fist
128,4,5,0,39,0,1,17,82,0,47,0,90,0,41,2,117,0,31,0,26,0,28,0,0,fist
128,4,5,0,28,0,1,20,239,206,1,11,254,216,203,6,152,249,30,254,252,0,130,252,95,255,176,0,fist
128,4,5,0,39,0,1,17,82,0,46,0,88,0,45,2,118,0,30,0,24,0,28,0,0,fist
128,4,5,0,28,0,1,20,239,206,95,11,7,217,95,6,224,249,2,254,231,0,6,253,2,255,44,0,fist
128,4,5,0,39,0,1,17,82,0,45,0,81,0,196,1,113,0,28,0,25,0,28,0,0,fist
128,4,5,0,28,0,1,20,231,206,196,11,36,217,26,6,250,249,232,253,203,0,134,253,163,254,111,255,fist
128,4,5,0,39,0,1,17,81,0,46,0,84,0,125,1,104,0,30,0,26,0,28,0,0,fist
128,4,5,0,28,0,1,20,211,206,37,12,87,217,255,5,226,249,181,253,215,0,67,254,86,254,196,254,fist
128,4,5,0,39,0,1,17,49,0,44,0,80,0,111,1,94,0,28,0,25,0,25,0,0,fist
128,4,5,0,28,0,1,20,181,206,120,12,153,217,5,6,44,250,33,254,183,0,1,255,5,254,46,254,fist
128,4,5,0,39,0,1,17,39,0,34,0,73,0,147,1,88,0,27,0,24,0,28,0,0,fist
128,4,5,0,28,0,1,20,148,206,220,12,232,217,23,6,133,250,116,254,155,0,226,254,199,253,151,253,fist
128,4,5,0,39,0,1,17,49,0,34,0,70,0,215,1,99,0,29,0,24,0,28,0,0,fist
128,4,5,0,28,0,1,20,121,206,107,13,65,218,54,6,160,250,67,254,159,0,92,254,163,253,208,252,fist
128,4,5,0,39,0,1,17,69,0,36,0,72,0,218,1,95,0,29,0,26,0,30,0,0,fist
128,4,5,0,28,0,1,20,92,206,30,14,180,218,113,6,126,250,104,253,224,0,49,254,79,253,19,252,fist
128,4,5,0,39,0,1,17,70,0,36,0,67,0,205,1,86,0,26,0,27,0,31,0,0,fist
128,4,5,0,28,0,1,20,52,206,201,14,60,219,208,6,183,250,59,253,10,1,223,254,17,253,134,251,fist
128,4,5,0,39,0,1,17,71,0,35,0,71,0,212,1,88,0,27,0,26,0,31,0,0,fist
128,4,5,0,28,0,1,20,13,206,127,15,213,219,73,7,26,251,139,253,9,1,5,255,231,252,186,250,fist
128,4,5,0,39,0,1,17,70,0,33,0,78,0,186,1,100,0,28,0,25,0,26,0,0,fist
128,4,5,0,28,0,1,20,243,205,100,16,122,220,198,7,70,251,79,253,39,1,55,254,209,252,7,250,fist
128,4,5,0,39,0,1,17,61,0,32,0,81,0,121,1,99,0,28,0,27,0,31,0,0,fist
128,4,5,0,28,0,1,20,222,205,97,17,49,221,82,8,130,251,155,252,132,1,249,253,190,252,150,249,fist
128,4,5,0,39,0,1,17,36,0,30,0,79,0,125,1,97,0,26,0,21,0,28,0,0,fist
128,4,5,0,28,0,1,20,211,205,113,18,245,221,234,8,189,251,192,251,125,1,208,253,163,252,31,249,fist
128,4,5,0,39,0,1,17,32,0,29,0,81,0,117,1,111,0,28,0,20,0,28,0,0,fist
128,4,5,0,28,0,1,20,206,205,122,19,192,222,146,9,41,252,146,251,120,1,25,254,182,252,226,248,fist
128,4,5,0,39,0,1,17,30,0,28,0,74,0,95,1,108,0,27,0,21,0,29,0,0,fist
128,4,5,0,28,0,1,20,213,205,146,20,146,223,57,10,14,253,213,251,86,1,199,253,171,252,167,248,fist
128,4,5,0,39,0,1,17,28,0,26,0,69,0,97,1,101,0,27,0,23,0,27,0,0,fist
128,4,5,0,28,0,1,20,249,205,231,21,110,224,210,10,161,253,12,251,57,1,109,252,141,252,33,248,fist
128,4,5,0,39,0,1,17,24,0,23,0,58,0,71,1,87,0,26,0,21,0,19,0,0,fist
128,4,5,0,28,0,1,20,47,206,84,23,82,225,95,11,156,253,20,250,167,1,199,251,111,252,4,248,fist
128,4,5,0,39,0,1,17,30,0,26,0,59,0,88,1,89,0,26,0,21,0,26,0,0,fist
128,4,5,0,28,0,1,20,102,206,172,24,65,226,238,11,212,253,2,250,248,1,36,252,101,252,16,248,fist
128,4,5,0,39,0,1,17,31,0,27,0,57,0,122,1,76,0,25,0,21,0,25,0,0,fist
128,4,5,0,28,0,1,20,164,206,248,25,57,227,141,12,246,254,146,249,127,1,141,252,123,252,244,247,fist
128,4,5,0,39,0,1,17,32,0,30,0,63,0,147,1,81,0,27,0,20,0,27,0,0,fist
128,4,5,0,28,0,1,20,231,206,47,27,68,228,79,13,253,255,230,248,150,1,73,253,165,252,121,247,fist
128,4,5,0,39,0,1,17,32,0,30,0,60,0,128,1,75,0,26,0,18,0,28,0,0,fist
128,4,5,0,28,0,1,20,36,207,65,28,91,229,43,14,147,255,29,249,2,2,51,254,206,252,50,247,fist
128,4,5,0,39,0,1,17,33,0,29,0,65,0,143,1,79,0,25,0,19,0,25,0,0,fist
128,4,5,0,28,0,1,20,93,207,64,29,121,230,244,14,233,254,213,248,6,2,107,254,134,252,142,247,fist
128,4,5,0,39,0,1,17,33,0,30,0,65,0,197,1,94,0,28,0,20,0,20,0,0,fist
128,4,5,0,28,0,1,20,166,207,72,30,160,231,186,15,109,255,142,248,223,1,36,254,106,252,89,247,fist
128,4,5,0,39,0,1,17,31,0,29,0,61,0,157,1,93,0,28,0,20,0,20,0,0,fist
128,4,5,0,28,0,1,20,1,208,82,31,209,232,141,16,1,0,181,247,163,1,38,254,137,252,253,246,fist
128,4,5,0,39,0,1,17,44,0,28,0,57,0,139,1,90,0,28,0,23,0,25,0,0,fist
128,4,5,0,28,0,1,20,87,208,62,32,22,234,119,17,144,0,32,247,198,1,253,254,156,252,171,246,fist
128,4,5,0,39,0,1,17,44,0,33,0,64,0,147,1,97,0,28,0,25,0,24,0,0,fist
128,4,5,0,28,0,1,20,164,208,8,33,104,235,99,18,111,1,157,247,186,1,184,255,141,252,221,246,fist
128,4,5,0,39,0,1,17,45,0,33,0,63,0,132,1,96,0,26,0,22,0,25,0,0,fist
128,4,5,0,28,0,1,20,4,209,216,33,178,236,63,19,228,1,113,248,138,1,61,255,153,252,6,247,fist
128,4,5,0,39,0,1,17,42,0,34,0,67,0,59,1,83,0,26,0,22,0,26,0,0,fist
128,4,5,0,28,0,1,20,146,209,209,34,226,237,0,20,102,2,66,248,170,1,171,253,191,252,49,247,fist
128,4,5,0,39,0,1,17,42,0,34,0,67,0,62,1,79,0,24,0,22,0,26,0,0,fist
128,4,5,0,28,0,1,20,45,210,200,35,13,239,179,20,62,2,246,246,206,1,110,253,185,252,83,247,fist
128,4,5,0,39,0,1,17,27,0,32,0,75,0,118,1,98,0,24,0,20,0,20,0,0,fist
128,4,5,0,28,0,1,20,173,210,143,36,65,240,99,21,58,2,17,247,0,2,136,254,191,252,170,247,fist
128,4,5,0,39,0,1,17,27,0,29,0,74,0,111,1,93,0,24,0,19,0,19,0,0,fist
128,4,5,0,28,0,1,20,51,211,73,37,123,241,21,22,216,2,70,247,89,1,198,254,199,252,159,247,fist
128,4,5,0,39,0,1,17,24,0,30,0,74,0,109,1,88,0,25,0,20,0,20,0,0,fist
128,4,5,0,28,0,1,20,205,211,4,38,184,242,210,22,148,3,110,247,40,1,150,254,253,252,75,247,fist
128,4,5,0,39,0,1,17,23,0,24,0,68,0,98,1,84,0,24,0,20,0,17,0,0,fist
128,4,5,0,28,0,1,20,113,212,178,38,241,243,148,23,177,3,232,247,59,1,160,254,62,253,54,247,fist
128,4,5,0,39,0,1,17,22,0,24,0,68,0,117,1,86,0,23,0,19,0,17,0,0,fist
128,4,5,0,28,0,1,20,39,213,106,39,14,245,59,24,183,3,134,247,48,1,229,253,72,253,186,247,fist
128,4,5,0,39,0,1,17,21,0,26,0,67,0,37,1,60,0,22,0,19,0,15,0,0,fist
128,4,5,0,28,0,1,20,225,213,26,40,36,246,212,24,40,4,23,247,40,1,213,253,72,253,0,248,fist
128,4,5,0,39,0,1,17,20,0,24,0,60,0,51,1,76,0,22,0,18,0,17,0,0,fist
128,4,5,0,28,0,1,20,132,214,167,40,59,247,105,25,167,4,191,247,20,1,165,254,110,253,103,248,fist
128,4,5,0,39,0,1,17,19,0,22,0,56,0,52,1,79,0,25,0,20,0,18,0,0,fist
128,4,5,0,28,0,1,20,43,215,46,41,70,248,242,25,73,5,216,247,18,1,131,254,128,253,192,248,fist
128,4,5,0,39,0,1,17,17,0,25,0,60,0,53,1,81,0,24,0,19,0,18,0,0,fist
128,4,5,0,28,0,1,20,236,215,195,41,69,249,119,26,199,5,136,246,154,0,233,253,144,253,162,248,fist
128,4,5,0,39,0,1,17,18,0,26,0,62,0,63,1,79,0,23,0,20,0,18,0,0,fist
128,4,5,0,28,0,1,20,141,216,36,42,78,250,11,27,136,5,76,247,77,1,25,255,251,253,168,248,fist
128,4,5,0,39,0,1,17,21,0,24,0,48,0,104,1,90,0,25,0,22,0,20,0,0,fist
128,4,5,0,28,0,1,20,60,217,142,42,55,251,142,27,116,5,1,248,164,0,128,254,40,254,46,249,fist
128,4,5,0,39,0,1,17,22,0,24,0,49,0,90,1,76,0,24,0,22,0,18,0,0,fist
128,4,5,0,28,0,1,20,29,218,23,43,248,251,16,28,142,6,58,248,156,0,244,252,111,254,84,249,fist
128,4,5,0,39,0,1,17,22,0,25,0,51,0,110,1,74,0,20,0,20,0,17,0,0,fist
128,4,5,0,28,0,1,20,16,219,163,43,158,252,144,28,233,6,209,247,60,0,110,252,198,254,139,249,fist
128,4,5,0,39,0,1,17,22,0,23,0,48,0,114,1,85,0,21,0,21,0,17,0,0,fist
128,4,5,0,28,0,1,20,242,219,19,44,62,253,21,29,144,6,190,247,206,0,198,252,14,255,242,249,fist
128,4,5,0,39,0,1,17,22,0,22,0,45,0,80,1,88,0,22,0,20,0,17,0,0,fist
128,4,5,0,28,0,1,20,154,220,94,44,221,253,127,29,56,6,81,247,141,0,39,254,255,254,104,250,fist
128,4,5,0,39,0,1,17,20,0,24,0,54,0,24,1,79,0,19,0,17,0,15,0,0,fist
128,4,5,0,28,0,1,20,0,221,115,44,158,254,228,29,150,6,106,247,131,0,44,0,255,254,172,250,fist
128,4,5,0,39,0,1,17,21,0,26,0,59,0,18,1,75,0,21,0,18,0,18,0,0,fist
128,4,5,0,28,0,1,20,51,221,94,44,126,255,68,30,135,6,229,247,64,0,225,1,20,255,206,250,fist
128,4,5,0,39,0,1,17,22,0,26,0,62,0,56,1,99,0,24,0,19,0,17,0,0,fist
128,4,5,0,28,0,1,20,91,221,73,44,79,0,145,30,38,6,79,248,200,255,23,2,33,255,50,251,fist
128,4,5,0,39,0,1,17,22,0,25,0,62,0,59,1,122,0,56,0,21,0,16,0,0,fist
128,4,5,0,28,0,1,20,156,221,73,44,246,0,214,30,36,6,191,248,243,255,240,0,55,255,184,251,fist
128,4,5,0,39,0,1,17,21,0,25,0,64,0,54,1,126,0,64,0,22,0,18,0,0,fist
128,4,5,0,28,0,1,20,241,221,107,44,86,1,0,31,10,6,0,248,234,255,128,255,66,255,125,252,fist
128,4,5,0,39,0,1,17,20,0,25,0,62,0,55,1,127,0,65,0,23,0,18,0,0,fist
128,4,5,0,28,0,1,20,41,222,134,44,136,1,21,31,225,5,71,247,42,0,110,255,118,255,92,253,fist
128,4,5,0,39,0,1,17,21,0,23,0,56,0,62,1,128,0,65,0,23,0,17,0,0,fist
128,4,5,0,28,0,1,20,72,222,154,44,156,1,24,31,232,5,2,247,21,0,160,255,164,255,42,254,fist
128,4,5,0,39,0,1,17,19,0,24,0,54,0,244,0,111,0,65,0,23,0,17,0,0,fist
128,4,5,0,28,0,1,20,69,222,161,44,152,1,12,31,45,6,15,247,62,0,245,255,198,255,45,255,fist
128,4,5,0,39,0,1,17,18,0,25,0,57,0,245,0,74,0,41,0,19,0,17,0,0,fist
128,4,5,0,28,0,1,20,37,222,164,44,118,1,229,30,26,6,74,247,27,0,52,0,214,255,90,0,fist
128,4,5,0,39,0,1,17,19,0,25,0,56,0,245,0,59,0,29,0,17,0,20,0,0,fist
128,4,5,0,28,0,1,20,243,221,168,44,53,1,172,30,58,6,151,247,64,0,19,0,220,255,122,1,fist
128,4,5,0,39,0,1,17,18,0,24,0,54,0,249,0,55,0,28,0,15,0,19,0,0,fist
128,4,5,0,28,0,1,20,174,221,171,44,208,0,93,30,96,6,251,246,56,0,6,0,250,255,103,2,fist
128,4,5,0,39,0,1,17,18,0,25,0,57,0,17,1,51,0,27,0,14,0,18,0,0,fist
128,4,5,0,28,0,1,20,65,221,148,44,98,0,6,30,88,6,223,246,107,0,201,0,44,0,31,3,fist
128,4,5,0,39,0,1,17,17,0,23,0,60,0,29,1,48,0,24,0,15,0,18,0,0,fist
128,4,5,0,28,0,1,20,190,220,109,44,233,255,165,29,154,6,22,247,69,0,75,1,107,0,244,3,fist
128,4,5,0,39,0,1,17,21,0,24,0,63,0,251,0,50,0,23,0,17,0,19,0,0,fist
128,4,5,0,28,0,1,20,49,220,62,44,94,255,65,29,247,6,209,246,114,0,84,1,164,0,157,4,fist
128,4,5,0,39,0,1,17,20,0,27,0,66,0,246,0,60,0,24,0,17,0,16,0,0,fist
128,4,5,0,28,0,1,20,154,219,11,44,180,254,205,28,223,6,251,245,61,0,91,1,236,0,59,5,fist
128,4,5,0,39,0,1,17,20,0,26,0,66,0,241,0,62,0,23,0,19,0,17,0,0,fist
128,4,5,0,28,0,1,20,226,218,186,43,251,253,83,28,171,6,249,245,161,0,249,1,57,1,6,6,fist
128,4,5,0,39,0,1,17,19,0,25,0,67,0,205,0,74,0,25,0,21,0,19,0,0,fist
128,4,5,0,28,0,1,20,26,218,92,43,34,253,198,27,237,6,26,245,229,0,251,1,106,1,8,7,fist
128,4,5,0,39,0,1,17,19,0,25,0,65,0,230,0,77,0,26,0,21,0,20,0,0,fist
128,4,5,0,28,0,1,20,42,217,223,42,45,252,29,27,166,6,10,245,1,1,183,2,166,1,63,8,fist
128,4,5,0,39,0,1,17,15,0,25,0,59,0,9,1,74,0,25,0,21,0,21,0,0,fist
128,4,5,0,28,0,1,20,26,216,65,42,29,251,91,26,49,7,90,245,65,1,85,3,231,1,133,9,fist
128,4,5,0,39,0,1,17,18,0,25,0,58,0,25,1,68,0,26,0,22,0,21,0,0,fist
128,4,5,0,28,0,1,20,250,214,140,41,242,249,129,25,31,7,27,245,44,1,160,3,37,2,119,10,fist
128,4,5,0,39,0,1,17,22,0,27,0,57,0,51,1,68,0,25,0,22,0,22,0,0,fist
128,4,5,0,28,0,1,20,200,213,178,40,186,248,151,24,63,7,140,245,133,1,60,4,103,2,66,11,fist
128,4,5,0,39,0,1,17,135,0,35,0,53,0,43,1,55,0,25,0,23,0,39,0,0,fist
128,4,5,0,28,0,1,20,141,212,178,39,116,247,166,23,255,6,59,246,202,1,196,4,214,2,207,11,fist
128,4,5,0,39,0,1,17,140,0,38,0,59,0,52,1,54,0,26,0,26,0,41,0,0,fist
128,4,5,0,28,0,1,20,99,211,163,38,28,246,178,22,181,6,157,246,4,2,156,4,62,3,25,12,fist
128,4,5,0,39,0,1,17,145,0,40,0,74,0,46,1,61,0,26,0,26,0,43,0,0,fist
128,4,5,0,28,0,1,20,77,210,133,37,186,244,191,21,57,6,56,246,231,1,139,4,166,3,24,12,fist
128,4,5,0,39,0,1,17,147,0,43,0,100,0,62,1,66,0,25,0,26,0,42,0,0,fist
128,4,5,0,28,0,1,20,57,209,58,36,93,243,225,20,137,5,188,246,55,2,82,5,47,4,230,11,fist
128,4,5,0,39,0,1,17,163,0,42,0,103,0,54,1,69,0,26,0,27,0,47,0,0,fist
128,4,5,0,28,0,1,20,59,208,222,34,242,241,6,20,239,4,111,247,169,1,80,5,171,4,236,11,fist
128,4,5,0,39,0,1,17,120,0,43,0,107,0,87,1,82,0,26,0,26,0,40,0,0,fist
128,4,5,0,28,0,1,20,93,207,126,33,126,240,48,19,34,5,240,247,100,1,3,5,24,5,216,11,fist
128,4,5,0,39,0,1,17,118,0,42,0,107,0,54,1,81,0,26,0,23,0,38,0,0,fist
128,4,5,0,28,0,1,20,156,206,25,32,8,239,101,18,87,4,194,248,113,1,201,4,115,5,122,11,fist
128,4,5,0,39,0,1,17,117,0,42,0,100,0,49,1,74,0,27,0,22,0,36,0,0,fist
128,4,5,0,28,0,1,20,0,206,201,30,138,237,137,17,68,3,86,249,181,1,212,3,110,5,104,11,fist
128,4,5,0,39,0,1,17,218,0,42,0,75,0,72,1,79,0,28,0,26,0,44,0,0,fist
128,4,5,0,28,0,1,20,130,205,143,29,15,236,151,16,40,2,171,249,57,2,239,2,55,5,85,11,fist
128,4,5,0,39,0,1,17,215,0,46,0,82,0,142,1,99,0,27,0,27,0,39,0,0,fist
128,4,5,0,28,0,1,20,29,205,102,28,162,234,153,15,130,1,248,248,225,1,128,2,226,4,34,11,fist
128,4,5,0,39,0,1,17,214,0,40,0,82,0,131,1,93,0,27,0,29,0,35,0,0,fist
128,4,5,0,28,0,1,20,175,204,13,27,80,233,180,14,12,1,159,249,246,1,178,3,216,4,207,10,fist
128,4,5,0,39,0,1,17,215,0,40,0,82,0,253,1,114,0,28,0,31,0,36,0,0,fist
128,4,5,0,28,0,1,20,62,204,134,25,16,232,227,13,130,0,169,250,183,1,201,4,227,4,150,10,fist
128,4,5,0,39,0,1,17,230,0,40,0,91,0,37,2,138,0,33,0,32,0,40,0,0,fist
128,4,5,0,28,0,1,20,226,203,7,24,226,230,24,13,248,255,183,251,129,1,143,4,188,4,19,10,fist
128,4,5,0,39,0,1,17,149,0,36,0,89,0,33,2,133,0,32,0,31,0,32,0,0,fist
128,4,5,0,28,0,1,20,168,203,185,22,200,229,88,12,96,255,172,251,80,1,161,3,125,4,25,9,fist
128,4,5,0,39,0,1,17,140,0,33,0,80,0,9,2,121,0,33,0,31,0,32,0,0,fist
128,4,5,0,28,0,1,20,128,203,110,21,191,228,191,11,175,254,9,252,111,1,209,3,163,4,27,8,fist
128,4,5,0,39,0,1,17,125,0,37,0,86,0,14,2,119,0,33,0,29,0,31,0,0,fist
128,4,5,0,28,0,1,20,107,203,63,20,200,227,46,11,194,253,46,253,147,1,68,3,102,4,87,7,fist
128,4,5,0,39,0,1,17,120,0,38,0,84,0,183,1,110,0,32,0,30,0,32,0,0,fist
128,4,5,0,28,0,1,20,118,203,91,19,216,226,137,10,44,253,110,253,73,1,142,1,24,4,193,6,fist
128,4,5,0,39,0,1,17,169,0,44,0,75,0,144,1,83,0,28,0,28,0,36,0,0,fist
128,4,5,0,28,0,1,20,159,203,190,18,235,225,208,9,211,252,111,253,38,1,255,255,196,3,48,6,fist
128,4,5,0,39,0,1,17,164,0,47,0,79,0,145,1,92,0,31,0,28,0,34,0,0,fist
128,4,5,0,28,0,1,20,224,203,94,18,6,225,19,9,124,252,30,253,215,0,226,254,128,3,140,5,fist
128,4,5,0,39,0,1,17,164,0,50,0,112,0,116,1,91,0,33,0,27,0,35,0,0,fist
128,4,5,0,28,0,1,20,43,204,34,18,48,224,74,8,211,251,63,253,205,0,22,254,14,3,21,5,fist
128,4,5,0,39,0,1,17,164,0,49,0,111,0,131,1,95,0,34,0,28,0,36,0,0,fist
128,4,5,0,28,0,1,20,121,204,5,18,105,223,95,7,243,250,163,253,215,0,19,253,115,2,226,4,fist
128,4,5,0,39,0,1,17,163,0,50,0,114,0,127,1,93,0,40,0,29,0,34,0,0,fist
128,4,5,0,28,0,1,20,200,204,17,18,189,222,83,6,131,250,112,253,214,0,9,252,173,1,223,4,fist
128,4,5,0,39,0,1,17,72,0,43,0,119,0,202,1,115,0,43,0,30,0,29,0,0,fist
128,4,5,0,28,0,1,20,17,205,59,18,56,222,84,5,94,250,178,252,221,0,227,251,3,1,106,4,fist
128,4,5,0,39,0,1,17,57,0,42,0,120,0,197,1,108,0,40,0,29,0,30,0,0,fist
128,4,5,0,28,0,1,20,71,205,88,18,215,221,127,4,24,250,106,252,242,0,197,252,124,0,192,3,fist
128,4,5,0,39,0,1,17,52,0,38,0,96,0,204,1,104,0,38,0,34,0,29,0,0,fist
128,4,5,0,28,0,1,20,103,205,89,18,147,221,199,3,195,249,140,252,12,1,188,253,252,255,85,3,fist
128,4,5,0,39,0,1,17,41,0,36,0,100,0,234,1,103,0,37,0,34,0,27,0,0,fist
128,4,5,0,28,0,1,20,114,205,63,18,99,221,22,3,150,249,69,253,251,0,86,254,111,255,31,3,fist
128,4,5,0,39,0,1,17,40,0,34,0,100,0,220,1,99,0,32,0,32,0,27,0,0,fist
128,4,5,0,28,0,1,20,120,205,52,18,71,221,91,2,245,249,181,253,187,0,9,254,232,254,244,2,fist
128,4,5,0,39,0,1,17,32,0,32,0,89,0,175,1,67,0,27,0,32,0,22,0,0,fist
128,4,5,0,28,0,1,20,129,205,103,18,74,221,170,1,74,250,240,252,173,0,55,253,114,254,86,2,fist
128,4,5,0,39,0,1,17,42,0,29,0,87,0,161,1,67,0,28,0,32,0,26,0,0,fist
128,4,5,0,28,0,1,20,131,205,160,18,95,221,34,1,19,250,141,252,171,0,174,253,74,254,146,1,fist
128,4,5,0,39,0,1,17,44,0,29,0,87,0,173,1,79,0,31,0,28,0,29,0,0,fist
128,4,5,0,28,0,1,20,121,205,198,18,128,221,176,0,14,250,41,253,207,0,68,254,37,254,22,1,fist
128,4,5,0,39,0,1,17,45,0,30,0,77,0,111,1,74,0,31,0,25,0,31,0,0,fist
128,4,5,0,28,0,1,20,113,205,13,19,177,221,49,0,78,250,213,253,170,0,116,253,198,253,144,0,fist
128,4,5,0,39,0,1,17,46,0,30,0,69,0,104,1,68,0,30,0,25,0,31,0,0,fist
128,4,5,0,28,0,1,20,112,205,136,19,248,221,164,255,44,250,111,253,124,0,117,252,64,253,50,0,fist
128,4,5,0,39,0,1,17,46,0,30,0,69,0,71,1,75,0,28,0,22,0,31,0,0,fist
128,4,5,0,28,0,1,20,94,205,12,20,100,222,28,255,54,250,20,253,227,0,108,252,165,252,236,255,fist
128,4,5,0,39,0,1,17,36,0,32,0,75,0,65,1,76,0,27,0,26,0,27,0,0,fist
128,4,5,0,28,0,1,20,56,205,148,20,244,222,158,254,98,250,219,252,34,1,143,252,248,251,144,255,fist
128,4,5,0,39,0,1,17,88,0,37,0,76,0,80,1,67,0,23,0,25,0,29,0,0,fist
128,4,5,0,28,0,1,20,253,204,9,21,159,223,65,254,127,250,200,252,77,1,99,253,135,251,2,255,fist
128,4,5,0,39,0,1,17,89,0,40,0,85,0,112,1,73,0,24,0,27,0,27,0,0,fist
128,4,5,0,28,0,1,20,170,204,100,21,99,224,18,254,199,250,109,252,155,1,120,254,68,251,128,254,fist
128,4,5,0,39,0,1,17,90,0,41,0,95,0,194,1,89,0,27,0,28,0,28,0,0,fist
128,4,5,0,28,0,1,20,61,204,148,21,56,225,0,254,245,250,84,253,248,1,136,255,255,250,231,253,fist
128,4,5,0,39,0,1,17,90,0,42,0,96,0,185,1,84,0,29,0,30,0,29,0,0,fist
128,4,5,0,28,0,1,20,217,203,244,21,41,226,238,253,10,251,15,253,62,2,144,254,175,250,74,253,fist
128,4,5,0,39,0,1,17,91,0,41,0,91,0,217,1,86,0,29,0,26,0,29,0,0,fist
128,4,5,0,28,0,1,20,118,203,89,22,39,227,230,253,53,251,108,252,189,2,144,254,180,250,52,253,fist
128,4,5,0,39,0,1,17,44,0,34,0,90,0,213,1,83,0,31,0,29,0,23,0,0,fist
128,4,5,0,28,0,1,20,17,203,184,22,45,228,1,254,189,251,29,252,206,2,15,255,220,250,199,252,fist
128,4,5,0,39,0,1,17,52,0,29,0,78,0,194,1,79,0,31,0,27,0,28,0,0,fist
128,4,5,0,28,0,1,20,169,202,10,23,57,229,57,254,96,252,220,252,2,3,103,255,16,251,36,252,fist
128,4,5,0,39,0,1,17,76,0,41,0,69,0,112,1,62,0,28,0,26,0,31,0,0,fist
128,4,5,0,28,0,1,20,100,202,156,23,69,230,99,254,100,252,190,252,255,2,215,253,60,251,200,251,fist
128,4,5,0,39,0,1,17,145,0,49,0,72,0,97,1,66,0,30,0,25,0,37,0,0,fist
128,4,5,0,28,0,1,20,59,202,100,24,88,231,121,254,138,252,28,252,122,3,101,252,99,251,213,251,fist
128,4,5,0,39,0,1,17,169,0,56,0,69,0,60,1,87,0,42,0,33,0,44,0,0,fist
128,4,5,0,28,0,1,20,55,202,117,25,123,232,127,254,202,252,102,251,104,3,193,250,72,251,155,251,fist
128,4,5,0,39,0,1,17,175,0,59,0,63,0,56,1,108,0,59,0,33,0,45,0,0,fist
128,4,5,0,28,0,1,20,87,202,190,26,168,233,107,254,169,253,246,251,215,2,83,249,215,250,60,251,fist
128,4,5,0,39,0,1,17,172,0,60,0,72,0,40,1,111,0,65,0,40,0,63,0,0,fist
128,4,5,0,28,0,1,20,144,202,24,28,210,234,77,254,8,254,202,250,4,2,211,248,237,250,108,251,fist
128,4,5,0,39,0,1,17,218,0,62,0,78,0,88,1,125,0,70,0,44,0,79,0,0,fist
128,4,5,0,28,0,1,20,197,202,91,29,11,236,105,254,162,253,36,249,126,2,8,250,97,251,65,251,fist
128,4,5,0,39,0,1,17,183,0,57,0,77,0,103,1,125,0,69,0,48,0,97,0,0,fist
128,4,5,0,28,0,1,20,208,202,63,30,70,237,181,254,124,253,70,249,214,2,73,252,130,251,180,250,fist
128,4,5,0,39,0,1,17,169,0,52,0,78,0,138,1,117,0,63,0,46,0,99,0,0,fist
128,4,5,0,28,0,1,20,211,202,4,31,131,238,20,255,226,253,94,250,147,2,231,252,137,251,65,250,fist
128,4,5,0,39,0,1,17,168,0,51,0,80,0,105,1,106,0,49,0,44,0,99,0,0,fist
128,4,5,0,28,0,1,20,240,202,232,31,205,239,120,255,168,254,26,250,218,1,107,252,118,251,31,250,fist
128,4,5,0,39,0,1,17,172,0,51,0,71,0,108,1,101,0,39,0,39,0,87,0,0,fist
128,4,5,0,28,0,1,20,19,203,194,32,24,241,222,255,124,255,59,249,235,1,73,252,111,251,161,249,fist
128,4,5,0,39,0,1,17,102,0,46,0,62,0,54,1,82,0,29,0,34,0,79,0,0,fist
128,4,5,0,28,0,1,20,38,203,117,33,119,242,112,0,165,255,129,248,120,2,89,253,125,251,213,248,fist
128,4,5,0,39,0,1,17,113,0,48,0,66,0,59,1,82,0,28,0,28,0,52,0,0,fist
128,4,5,0,28,0,1,20,37,203,243,33,210,243,28,1,93,255,252,248,206,2,151,254,191,251,141,248,fist
128,4,5,0,39,0,1,17,103,0,47,0,67,0,19,1,78,0,29,0,23,0,42,0,0,fist
128,4,5,0,28,0,1,20,62,203,132,34,35,245,206,1,251,255,58,249,106,2,2,254,29,252,126,248,fist
128,4,5,0,39,0,1,17,93,0,45,0,59,0,76,1,70,0,25,0,22,0,41,0,0,fist
128,4,5,0,28,0,1,20,113,203,38,35,107,246,143,2,198,0,94,249,76,2,107,253,144,252,72,248,fist
128,4,5,0,39,0,1,17,85,0,44,0,57,0,73,1,75,0,26,0,21,0,39,0,0,fist
128,4,5,0,28,0,1,20,190,203,217,35,179,247,91,3,48,1,250,248,46,2,220,252,193,252,9,248,fist
128,4,5,0,39,0,1,17,72,0,34,0,58,0,87,1,82,0,25,0,18,0,22,0,0,fist
128,4,5,0,28,0,1,20,34,204,151,36,250,248,50,4,92,1,121,248,82,2,100,252,242,252,203,247,fist
128,4,5,0,39,0,1,17,49,0,28,0,51,0,70,1,78,0,24,0,21,0,23,0,0,fist
128,4,5,0,28,0,1,20,166,204,105,37,52,250,24,5,200,1,211,247,115,2,168,251,107,253,150,247,fist
128,4,5,0,39,0,1,17,42,0,28,0,47,0,38,1,71,0,23,0,22,0,23,0,0,fist
128,4,5,0,28,0,1,20,33,205,19,38,94,251,22,6,54,2,203,248,113,2,107,252,10,254,119,247,fist
128,4,5,0,39,0,1,17,40,0,29,0,57,0,51,1,91,0,29,0,20,0,24,0,0,fist
128,4,5,0,28,0,1,20,201,205,226,38,130,252,27,7,99,3,84,248,251,1,61,251,71,254,98,247,fist
128,4,5,0,39,0,1,17,37,0,30,0,57,0,51,1,86,0,28,0,21,0,24,0,0,fist
128,4,5,0,28,0,1,20,141,206,187,39,164,253,44,8,0,4,155,247,54,1,206,250,118,254,35,247,fist
128,4,5,0,39,0,1,17,33,0,32,0,61,0,81,1,90,0,31,0,21,0,25,0,0,fist
128,4,5,0,28,0,1,20,77,207,116,40,193,254,76,9,110,4,205,247,53,1,92,251,211,254,252,246,fist
128,4,5,0,39,0,1,17,25,0,30,0,67,0,73,1,95,0,32,0,19,0,21,0,0,fist
128,4,5,0,28,0,1,20,43,208,53,41,214,255,124,10,195,4,45,247,1,1,205,250,45,255,177,246,fist
128,4,5,0,39,0,1,17,31,0,28,0,67,0,72,1,94,0,31,0,16,0,18,0,0,fist
128,4,5,0,28,0,1,20,33,209,249,41,205,0,177,11,44,4,90,247,196,0,77,250,171,255,206,246,fist
128,4,5,0,39,0,1,17,30,0,29,0,64,0,244,0,74,0,27,0,17,0,17,0,0,fist
128,4,5,0,28,0,1,20,31,210,178,42,173,1,220,12,126,4,138,247,170,0,66,250,238,255,72,247,fist
128,4,5,0,39,0,1,17,47,0,31,0,64,0,244,0,78,0,28,0,17,0,23,0,0,fist
128,4,5,0,28,0,1,20,57,211,115,43,119,2,10,14,137,5,247,246,65,0,162,249,72,0,115,247,fist
128,4,5,0,39,0,1,17,86,0,34,0,66,0,174,0,68,0,26,0,20,0,28,0,0,fist
128,4,5,0,28,0,1,20,101,212,43,44,34,3,75,15,214,5,2,245,231,255,91,249,12,1,104,247,fist
128,4,5,0,39,0,1,17,94,0,37,0,66,0,174,0,66,0,25,0,20,0,29,0,0,fist
128,4,5,0,28,0,1,20,84,213,153,44,191,3,127,16,64,4,178,244,147,0,50,251,115,1,193,247,fist
128,4,5,0,39,0,1,17,94,0,39,0,69,0,209,0,70,0,26,0,21,0,31,0,0,fist
128,4,5,0,28,0,1,20,22,214,232,44,71,4,111,17,63,4,66,245,45,0,89,252,248,0,65,249,fist
128,4,5,0,39,0,1,17,110,0,40,0,73,0,199,0,77,0,29,0,24,0,37,0,0,fist
128,4,5,0,28,0,1,20,204,214,60,45,171,4,43,18,126,5,44,245,145,255,119,252,198,0,126,250,fist
128,4,5,0,39,0,1,17,172,0,42,0,72,0,229,0,72,0,29,0,24,0,37,0,0,fist
128,4,5,0,28,0,1,20,103,215,135,45,232,4,189,18,230,5,4,244,239,254,13,253,231,0,136,251,fist
128,4,5,0,39,0,1,17,162,0,42,0,69,0,224,0,72,0,28,0,22,0,35,0,0,fist
128,4,5,0,28,0,1,20,182,215,157,45,15,5,36,19,4,5,55,244,47,255,188,254,240,0,107,252,fist
128,4,5,0,39,0,1,17,162,0,42,0,72,0,28,1,84,0,30,0,22,0,34,0,0,fist
128,4,5,0,28,0,1,20,221,215,167,45,30,5,89,19,190,4,213,244,208,254,161,255,193,0,187,253,fist
128,4,5,0,39,0,1,17,162,0,40,0,69,0,253,0,76,0,29,0,21,0,33,0,0,fist
128,4,5,0,28,0,1,20,245,215,176,45,20,5,121,19,57,5,123,245,228,254,185,255,194,0,227,254,fist
128,4,5,0,39,0,1,17,155,0,36,0,63,0,2,1,68,0,24,0,18,0,26,0,0,fist
128,4,5,0,28,0,1,20,252,215,190,45,234,4,116,19,253,4,165,245,236,254,189,255,159,0,255,255,fist
128,4,5,0,39,0,1,17,133,0,36,0,65,0,244,0,70,0,23,0,18,0,29,0,0,fist
128,4,5,0,28,0,1,20,251,215,213,45,164,4,76,19,215,4,181,245,219,254,165,255,104,0,0,1,fist
128,4,5,0,39,0,1,17,142,0,36,0,61,0,245,0,67,0,22,0,19,0,30,0,0,fist
128,4,5,0,28,0,1,20,217,215,224,45,76,4,255,18,231,4,82,245,218,254,64,0,54,0,252,1,fist
128,4,5,0,39,0,1,17,223,0,38,0,52,0,168,0,43,0,17,0,19,0,34,0,0,fist
128,4,5,0,28,0,1,20,128,215,195,45,249,3,153,18,253,4,169,245,2,255,179,1,12,0,206,2,fist
128,4,5,0,39,0,1,17,237,0,42,0,58,0,206,0,46,0,19,0,22,0,41,0,0,fist
128,4,5,0,28,0,1,20,12,215,147,45,168,3,31,18,8,5,135,246,222,254,149,2,235,255,146,3,fist
128,4,5,0,39,0,1,17,240,0,44,0,57,0,230,0,47,0,20,0,21,0,41,0,0,fist
128,4,5,0,28,0,1,20,142,214,95,45,82,3,144,17,6,5,194,246,239,254,203,2,180,255,49,4,fist
128,4,5,0,39,0,1,17,216,0,41,0,56,0,228,0,47,0,22,0,23,0,36,0,0,fist
128,4,5,0,28,0,1,20,247,213,25,45,254,2,233,16,212,4,142,246,28,255,120,3,108,255,163,4,fist
128,4,5,0,39,0,1,17,209,0,37,0,63,0,19,1,56,0,24,0,21,0,36,0,0,fist
128,4,5,0,28,0,1,20,94,213,212,44,174,2,46,16,247,4,5,246,145,254,223,3,52,255,249,4,fist
128,4,5,0,39,0,1,17,120,0,33,0,67,0,22,1,62,0,27,0,22,0,32,0,0,fist
128,4,5,0,28,0,1,20,196,212,135,44,101,2,113,15,248,4,134,246,213,254,253,3,18,255,45,5,fist
128,4,5,0,39,0,1,17,88,0,28,0,62,0,249,0,75,0,42,0,20,0,22,0,0,fist
128,4,5,0,28,0,1,20,55,212,78,44,254,1,144,14,85,4,129,246,15,255,85,3,205,254,240,5,fist
128,4,5,0,39,0,1,17,73,0,27,0,59,0,223,0,77,0,47,0,22,0,20,0,0,fist
128,4,5,0,28,0,1,20,165,211,20,44,113,1,141,13,28,4,46,246,74,255,178,2,158,254,204,6,fist
128,4,5,0,39,0,1,17,64,0,28,0,68,0,216,0,92,0,47,0,22,0,19,0,0,fist
128,4,5,0,28,0,1,20,251,210,188,43,217,0,121,12,145,3,113,245,60,0,101,3,175,254,69,7,fist
128,4,5,0,39,0,1,17,51,0,27,0,65,0,191,0,91,0,47,0,24,0,18,0,0,fist
128,4,5,0,28,0,1,20,21,210,29,43,66,0,86,11,112,3,71,245,22,1,79,5,183,254,196,7,fist
128,4,5,0,39,0,1,17,35,0,28,0,77,0,186,0,93,0,47,0,26,0,18,0,0,fist
128,4,5,0,28,0,1,20,24,209,86,42,162,255,40,10,98,4,172,245,152,1,57,6,223,254,85,8,fist
128,4,5,0,39,0,1,17,29,0,28,0,83,0,228,0,88,0,36,0,29,0,21,0,0,fist
128,4,5,0,28,0,1,20,31,208,127,41,231,254,248,8,136,4,28,246,2,2,74,6,95,255,223,8,fist
128,4,5,0,39,0,1,17,26,0,31,0,99,0,4,1,94,0,35,0,29,0,23,0,0,fist
128,4,5,0,28,0,1,20,55,207,163,40,2,254,204,7,108,4,158,246,223,2,241,5,32,0,99,9,fist
128,4,5,0,39,0,1,17,21,0,30,0,103,0,22,1,89,0,36,0,31,0,26,0,0,fist
128,4,5,0,28,0,1,20,98,206,195,39,246,252,159,6,208,3,194,246,69,3,157,5,212,0,230,9,fist
128,4,5,0,39,0,1,17,22,0,32,0,111,0,114,1,110,0,38,0,31,0,26,0,0,fist
128,4,5,0,28,0,1,20,153,205,213,38,201,251,119,5,146,3,215,246,147,3,163,5,133,1,71,10,fist
128,4,5,0,39,0,1,17,26,0,35,0,103,0,221,1,126,0,41,0,31,0,25,0,0,fist
128,4,5,0,28,0,1,20,209,204,200,37,137,250,97,4,64,3,8,247,242,3,29,6,46,2,74,10,fist
128,4,5,0,39,0,1,17,29,0,35,0,100,0,249,1,133,0,42,0,32,0,24,0,0,fist
128,4,5,0,28,0,1,20,25,204,171,36,51,249,98,3,11,3,177,246,73,3,96,6,238,2,54,10,fist
128,4,5,0,39,0,1,17,116,0,41,0,96,0,7,2,134,0,42,0,34,0,41,0,0,fist
128,4,5,0,28,0,1,20,109,203,120,35,203,247,148,2,240,2,48,247,205,2,195,6,245,3,161,9,fist
128,4,5,0,39,0,1,17,122,0,44,0,95,0,24,2,130,0,41,0,34,0,42,0,0,fist
128,4,5,0,28,0,1,20,199,202,38,34,83,246,246,1,85,2,46,248,152,2,101,7,223,4,5,9,fist
128,4,5,0,39,0,1,17,130,0,46,0,93,0,246,1,122,0,40,0,34,0,44,0,0,fist
128,4,5,0,28,0,1,20,62,202,217,32,209,244,117,1,109,1,196,248,53,2,32,7,111,5,116,8,fist
128,4,5,0,39,0,1,17,194,0,45,0,93,0,167,1,103,0,37,0,33,0,45,0,0,fist
128,4,5,0,28,0,1,20,218,201,167,31,80,243,17,1,217,0,59,249,254,1,84,6,217,5,200,7,fist
128,4,5,0,39,0,1,17,205,0,47,0,98,0,152,1,96,0,35,0,30,0,53,0,0,fist
128,4,5,0,28,0,1,20,133,201,109,30,207,241,198,0,36,0,32,250,64,2,96,6,44,6,62,7,fist
128,4,5,0,39,0,1,17,177,0,42,0,92,0,173,1,92,0,31,0,28,0,41,0,0,fist
128,4,5,0,28,0,1,20,76,201,71,29,78,240,126,0,82,255,55,251,140,2,167,5,82,6,248,6,fist
128,4,5,0,39,0,1,17,179,0,40,0,84,0,178,1,91,0,33,0,26,0,41,0,0,fist
128,4,5,0,28,0,1,20,56,201,77,28,217,238,33,0,210,254,13,252,45,3,58,4,22,6,241,6,fist
128,4,5,0,39,0,1,17,175,0,38,0,93,0,151,1,79,0,32,0,27,0,39,0,0,fist
128,4,5,0,28,0,1,20,83,201,165,27,126,237,180,255,152,254,72,250,143,3,60,2,194,5,159,6,fist
128,4,5,0,39,0,1,17,102,0,35,0,97,0,160,1,92,0,33,0,29,0,38,0,0,fist
128,4,5,0,28,0,1,20,106,201,222,26,36,236,128,255,31,254,104,248,5,4,74,3,68,6,224,5,fist
128,4,5,0,39,0,1,17,81,0,36,0,108,0,134,1,88,0,35,0,34,0,28,0,0,fist
128,4,5,0,28,0,1,20,96,201,163,25,172,234,156,255,109,253,158,249,157,3,71,6,67,7,81,5,fist
128,4,5,0,39,0,1,17,175,0,54,0,116,0,126,1,95,0,41,0,36,0,43,0,0,fist
128,4,5,0,28,0,1,20,96,201,70,24,34,233,201,255,186,253,36,252,212,2,225,6,204,7,69,5,fist
128,4,5,0,39,0,1,17,177,0,63,0,135,0,161,1,116,0,42,0,36,0,42,0,0,fist
128,4,5,0,28,0,1,20,145,201,58,23,161,231,198,255,214,253,30,254,34,2,137,4,148,7,88,5,fist
128,4,5,0,39,0,1,17,189,0,63,0,128,0,161,1,113,0,40,0,36,0,42,0,0,fist
128,4,5,0,28,0,1,20,252,201,172,22,59,230,103,255,58,253,97,254,218,1,247,0,201,6,181,5,fist
128,4,5,0,39,0,1,17,207,0,70,0,127,0,202,1,112,0,41,0,37,0,47,0,0,fist
128,4,5,0,28,0,1,20,147,202,143,22,243,228,189,254,166,252,39,253,98,1,32,254,226,5,11,6,fist
128,4,5,0,39,0,1,17,212,0,71,0,126,0,254,1,129,0,42,0,34,0,48,0,0,fist
128,4,5,0,28,0,1,20,61,203,149,22,189,227,17,254,30,252,177,252,3,1,120,253,143,5,184,5,fist
128,4,5,0,39,0,1,17,139,0,56,0,119,0,246,1,124,0,37,0,30,0,36,0,0,fist
128,4,5,0,28,0,1,20,230,203,156,22,155,226,110,253,215,251,251,252,118,0,158,253,20,5,68,5,fist
128,4,5,0,39,0,1,17,129,0,48,0,117,0,48,2,119,0,37,0,32,0,35,0,0,fist
128,4,5,0,28,0,1,20,129,204,152,22,154,225,212,252,96,251,49,253,100,0,231,253,87,4,206,4,fist
128,4,5,0,39,0,1,17,172,0,49,0,118,0,89,2,121,0,38,0,35,0,49,0,0,fist
128,4,5,0,28,0,1,20,8,205,145,22,197,224,65,252,168,250,34,253,103,0,27,254,97,3,68,4,fist
128,4,5,0,39,0,1,17,179,0,42,0,129,0,165,2,129,0,40,0,33,0,47,0,0,fist
128,4,5,0,28,0,1,20,114,205,112,22,20,224,197,251,95,250,207,252,144,0,248,254,175,2,245,3,fist
128,4,5,0,39,0,1,17,203,0,45,0,125,0,190,2,119,0,37,0,34,0,50,0,0,fist
128,4,5,0,28,0,1,20,185,205,31,22,118,223,127,251,174,249,229,252,161,0,145,0,79,2,52,3,fist
128,4,5,0,39,0,1,17,203,0,48,0,132,0,200,2,119,0,37,0,36,0,50,0,0,fist
128,4,5,0,28,0,1,20,226,205,181,21,245,222,96,251,123,249,228,252,134,0,164,1,173,1,147,2,fist
128,4,5,0,39,0,1,17,205,0,45,0,118,0,160,2,115,0,36,0,39,0,50,0,0,fist
128,4,5,0,28,0,1,20,246,205,48,21,132,222,72,251,134,249,194,253,65,0,65,2,13,1,70,2,fist
128,4,5,0,39,0,1,17,159,0,44,0,116,0,131,2,117,0,34,0,39,0,37,0,0,fist
128,4,5,0,28,0,1,20,10,206,206,20,48,222,30,251,169,249,145,253,222,255,139,1,89,0,39,2,fist
128,4,5,0,39,0,1,17,124,0,40,0,104,0,11,2,101,0,30,0,40,0,36,0,0,fist
128,4,5,0,28,0,1,20,23,206,148,20,0,222,238,250,236,248,5,253,220,255,211,0,150,255,168,1,fist
128,4,5,0,39,0,1,17,89,0,43,0,106,0,208,1,95,0,29,0,39,0,33,0,0,fist
128,4,5,0,28,0,1,20,31,206,98,20,226,221,152,250,241,248,85,253,183,255,65,0,226,254,255,1,fist
128,4,5,0,39,0,1,17,84,0,45,0,128,0,249,1,115,0,32,0,48,0,37,0,0,fist
128,4,5,0,28,0,1,20,40,206,70,20,220,221,18,250,173,249,23,254,109,255,59,255,35,254,60,2,fist
128,4,5,0,39,0,1,17,158,0,49,0,139,0,203,1,107,0,34,0,45,0,41,0,0,fist
128,4,5,0,28,0,1,20,36,206,98,20,18,222,103,249,249,249,147,253,219,255,203,253,19,253,31,2,fist
128,4,5,0,39,0,1,17,161,0,55,0,156,0,19,2,120,0,37,0,44,0,46,0,0,fist
128,4,5,0,28,0,1,20,245,205,106,20,121,222,214,248,165,248,27,253,29,1,115,254,61,252,107,1,fist
128,4,5,0,39,0,1,17,164,0,56,0,161,0,102,2,138,0,39,0,45,0,46,0,0,fist
128,4,5,0,28,0,1,20,159,205,57,20,252,222,77,248,112,248,151,253,233,1,129,255,133,251,104,1,fist
128,4,5,0,39,0,1,17,155,0,49,0,162,0,91,2,133,0,39,0,44,0,44,0,0,fist
128,4,5,0,28,0,1,20,32,205,197,19,152,223,208,247,21,249,29,254,118,2,227,0,200,250,148,1,fist
128,4,5,0,39,0,1,17,155,0,46,0,141,0,28,2,114,0,37,0,33,0,41,0,0,fist
128,4,5,0,28,0,1,20,137,204,23,19,62,224,93,247,57,250,237,254,68,2,21,2,59,250,203,1,fist
128,4,5,0,39,0,1,17,76,0,43,0,130,0,18,2,115,0,41,0,37,0,36,0,0,fist
128,4,5,0,28,0,1,20,235,203,95,18,239,224,249,246,184,250,134,255,113,2,83,2,23,250,104,1,fist
128,4,5,0,39,0,1,17,65,0,38,0,121,0,111,2,124,0,41,0,35,0,29,0,0,fist
128,4,5,0,28,0,1,20,86,203,207,17,180,225,159,246,112,250,139,255,137,2,151,1,229,249,172,0,fist
128,4,5,0,39,0,1,17,49,0,40,0,130,0,103,2,118,0,42,0,40,0,27,0,0,fist
128,4,5,0,28,0,1,20,199,202,120,17,150,226,86,246,147,250,228,255,127,2,221,0,184,249,39,0,fist
128,4,5,0,39,0,1,17,44,0,40,0,123,0,105,2,124,0,43,0,44,0,25,0,0,fist
128,4,5,0,28,0,1,20,64,202,82,17,147,227,7,246,254,250,37,0,61,2,196,255,95,249,163,255,fist
128,4,5,0,39,0,1,17,37,0,36,0,120,0,127,2,122,0,42,0,51,0,24,0,0,fist
128,4,5,0,28,0,1,20,187,201,98,17,181,228,205,245,117,251,98,255,204,2,219,254,27,249,156,254,fist
128,4,5,0,39,0,1,17,32,0,37,0,120,0,190,2,126,0,38,0,63,0,26,0,0,fist
128,4,5,0,28,0,1,20,42,201,107,17,231,229,193,245,20,251,198,254,191,3,112,255,254,248,184,253,fist
128,4,5,0,39,0,1,17,29,0,36,0,118,0,59,2,106,0,38,0,66,0,27,0,0,fist
128,4,5,0,28,0,1,20,157,200,121,17,31,231,198,245,61,251,214,254,206,3,112,255,2,249,83,253,fist
128,4,5,0,39,0,1,17,28,0,33,0,103,0,240,1,92,0,35,0,63,0,27,0,0,fist
128,4,5,0,28,0,1,20,44,200,216,17,104,232,200,245,71,252,28,255,70,3,165,253,50,249,179,252,fist
128,4,5,0,39,0,1,17,26,0,29,0,96,0,248,1,89,0,32,0,60,0,28,0,0,fist
128,4,5,0,28,0,1,20,203,199,117,18,198,233,226,245,2,253,153,254,30,4,40,252,218,249,162,251,fist
128,4,5,0,39,0,1,17,26,0,34,0,102,0,238,1,100,0,37,0,55,0,29,0,0,fist
128,4,5,0,28,0,1,20,119,199,52,19,47,235,24,246,112,252,38,253,126,4,233,251,230,249,34,251,fist
128,4,5,0,39,0,1,17,25,0,33,0,104,0,144,1,96,0,35,0,36,0,25,0,0,fist
128,4,5,0,28,0,1,20,35,199,215,19,158,236,86,246,164,252,21,253,31,5,86,252,230,249,30,251,fist
128,4,5,0,39,0,1,17,45,0,40,0,101,0,113,1,91,0,35,0,30,0,32,0,0,fist
128,4,5,0,28,0,1,20,228,198,161,20,28,238,141,246,247,253,170,253,132,4,52,251,249,249,253,250,fist
128,4,5,0,39,0,1,17,121,0,41,0,100,0,140,1,93,0,35,0,28,0,35,0,0,fist
128,4,5,0,28,0,1,20,223,198,204,21,122,239,209,246,241,254,112,253,151,4,96,249,214,250,114,250,fist
128,4,5,0,39,0,1,17,202,0,51,0,99,0,108,1,89,0,35,0,29,0,45,0,0,fist
